time,Displacement,Force
         0.0000,  -5.999816,   -0.001,
         0.0500,  -5.999329,   -0.001,
         0.1000,  -5.996415,   -0.001,
         0.1500,  -5.992378,   -0.001,
         0.2000,  -5.988293,   -0.001,
         0.2500,  -5.984100,    0.000,
         0.3000,  -5.979976,    0.000,
         0.3500,  -5.975768,    0.000,
         0.4000,  -5.971595,    0.000,
         0.4500,  -5.967418,    0.000,
         0.5000,  -5.963260,    0.000,
         0.5500,  -5.959081,    0.001,
         0.6000,  -5.954943,    0.001,
         0.6500,  -5.950732,    0.001,
         0.7000,  -5.946583,    0.001,
         0.7500,  -5.942399,    0.001,
         0.8000,  -5.938237,    0.001,
         0.8500,  -5.933897,    0.002,
         0.9000,  -5.929740,    0.002,
         0.9500,  -5.925534,    0.002,
         1.0000,  -5.921402,    0.003,
         1.0500,  -5.917212,    0.003,
         1.1000,  -5.913079,    0.003,
         1.1500,  -5.908906,    0.004,
         1.2000,  -5.904715,    0.004,
         1.2500,  -5.900581,    0.004,
         1.3000,  -5.896400,    0.005,
         1.3500,  -5.892271,    0.005,
         1.4000,  -5.888082,    0.005,
         1.4500,  -5.883914,    0.005,
         1.5000,  -5.879779,    0.005,
         1.5500,  -5.875455,    0.006,
         1.6000,  -5.871233,    0.006,
         1.6500,  -5.867100,    0.006,
         1.7000,  -5.862939,    0.006,
         1.7500,  -5.858750,    0.007,
         1.8000,  -5.854583,    0.007,
         1.8500,  -5.850430,    0.007,
         1.9000,  -5.846310,    0.007,
         1.9500,  -5.842107,    0.007,
         2.0000,  -5.837932,    0.007,
         2.0500,  -5.833834,    0.007,
         2.1000,  -5.829614,    0.008,
         2.1500,  -5.825474,    0.008,
         2.2000,  -5.821312,    0.008,
         2.2500,  -5.817144,    0.008,
         2.3000,  -5.812841,    0.009,
         2.3500,  -5.808630,    0.009,
         2.4000,  -5.804478,    0.009,
         2.4500,  -5.800342,    0.009,
         2.5000,  -5.796184,    0.009,
         2.5500,  -5.792007,    0.009,
         2.6000,  -5.787860,    0.009,
         2.6500,  -5.783724,    0.010,
         2.7000,  -5.779500,    0.010,
         2.7500,  -5.775379,    0.010,
         2.8000,  -5.771223,    0.010,
         2.8500,  -5.767069,    0.011,
         2.9000,  -5.762918,    0.011,
         2.9500,  -5.758741,    0.011,
         3.0000,  -5.754458,    0.012,
         3.0500,  -5.750251,    0.012,
         3.1000,  -5.746081,    0.012,
         3.1500,  -5.741962,    0.012,
         3.2000,  -5.737725,    0.012,
         3.2500,  -5.733609,    0.012,
         3.3000,  -5.729464,    0.012,
         3.3500,  -5.725318,    0.012,
         3.4000,  -5.721163,    0.013,
         3.4500,  -5.716970,    0.014,
         3.5000,  -5.712827,    0.014,
         3.5500,  -5.708686,    0.014,
         3.6000,  -5.704536,    0.014,
         3.6500,  -5.700333,    0.014,
         3.7000,  -5.696068,    0.014,
         3.7500,  -5.691835,    0.014,
         3.8000,  -5.687680,    0.015,
         3.8500,  -5.683549,    0.015,
         3.9000,  -5.679383,    0.016,
         3.9500,  -5.675250,    0.016,
         4.0000,  -5.671070,    0.016,
         4.0500,  -5.666927,    0.016,
         4.1000,  -5.662766,    0.016,
         4.1500,  -5.658610,    0.017,
         4.2000,  -5.654430,    0.017,
         4.2500,  -5.650319,    0.017,
         4.3000,  -5.646133,    0.018,
         4.3500,  -5.641943,    0.018,
         4.4000,  -5.637657,    0.018,
         4.4500,  -5.633489,    0.018,
         4.5000,  -5.629299,    0.018,
         4.5500,  -5.625170,    0.018,
         4.6000,  -5.620989,    0.018,
         4.6500,  -5.616872,    0.019,
         4.7000,  -5.612703,    0.019,
         4.7500,  -5.608568,    0.019,
         4.8000,  -5.604358,    0.019,
         4.8500,  -5.600237,    0.020,
         4.9000,  -5.596082,    0.020,
         4.9500,  -5.591928,    0.020,
         5.0000,  -5.587765,    0.020,
         5.0500,  -5.583499,    0.020,
         5.1000,  -5.579264,    0.020,
         5.1500,  -5.575120,    0.020,
         5.2000,  -5.570952,    0.021,
         5.2500,  -5.566811,    0.021,
         5.3000,  -5.562639,    0.021,
         5.3500,  -5.558488,    0.022,
         5.4000,  -5.554331,    0.022,
         5.4500,  -5.550158,    0.022,
         5.5000,  -5.545991,    0.022,
         5.5500,  -5.541879,    0.022,
         5.6000,  -5.537691,    0.023,
         5.6500,  -5.533529,    0.023,
         5.7000,  -5.529367,    0.023,
         5.7500,  -5.525061,    0.024,
         5.8000,  -5.520878,    0.024,
         5.8500,  -5.516741,    0.024,
         5.9000,  -5.512570,    0.024,
         5.9500,  -5.508448,    0.024,
         6.0000,  -5.504271,    0.024,
         6.0500,  -5.500113,    0.025,
         6.1000,  -5.495961,    0.025,
         6.1500,  -5.491834,    0.025,
         6.2000,  -5.487641,    0.026,
         6.2500,  -5.483530,    0.026,
         6.3000,  -5.479333,    0.026,
         6.3500,  -5.475174,    0.026,
         6.4000,  -5.470873,    0.026,
         6.4500,  -5.466662,    0.026,
         6.5000,  -5.462534,    0.027,
         6.5500,  -5.458372,    0.027,
         6.6000,  -5.454208,    0.028,
         6.6500,  -5.450094,    0.028,
         6.7000,  -5.445873,    0.028,
         6.7500,  -5.441743,    0.028,
         6.8000,  -5.437603,    0.028,
         6.8500,  -5.433417,    0.029,
         6.9000,  -5.429290,    0.029,
         6.9500,  -5.425130,    0.029,
         7.0000,  -5.420949,    0.030,
         7.0500,  -5.416630,    0.030,
         7.1000,  -5.412488,    0.030,
         7.1500,  -5.408319,    0.030,
         7.2000,  -5.404127,    0.030,
         7.2500,  -5.400014,    0.030,
         7.3000,  -5.395841,    0.030,
         7.3500,  -5.391685,    0.031,
         7.4000,  -5.387534,    0.031,
         7.4500,  -5.383373,    0.032,
         7.5000,  -5.379231,    0.032,
         7.5500,  -5.375057,    0.033,
         7.6000,  -5.370905,    0.033,
         7.6500,  -5.366762,    0.033,
         7.7000,  -5.362455,    0.033,
         7.7500,  -5.358258,    0.033,
         7.8000,  -5.354094,    0.034,
         7.8500,  -5.349951,    0.034,
         7.9000,  -5.345783,    0.035,
         7.9500,  -5.341648,    0.035,
         8.0000,  -5.337489,    0.035,
         8.0500,  -5.333321,    0.035,
         8.1000,  -5.329176,    0.035,
         8.1500,  -5.325011,    0.035,
         8.2000,  -5.320885,    0.035,
         8.2500,  -5.316700,    0.036,
         8.3000,  -5.312509,    0.036,
         8.3500,  -5.308227,    0.037,
         8.4000,  -5.304075,    0.037,
         8.4500,  -5.299907,    0.037,
         8.5000,  -5.295726,    0.037,
         8.5500,  -5.291592,    0.037,
         8.6000,  -5.287466,    0.037,
         8.6500,  -5.283279,    0.038,
         8.7000,  -5.279143,    0.038,
         8.7500,  -5.274991,    0.038,
         8.8000,  -5.270794,    0.039,
         8.8500,  -5.266684,    0.039,
         8.9000,  -5.262531,    0.039,
         8.9500,  -5.258254,    0.039,
         9.0000,  -5.254020,    0.039,
         9.0500,  -5.249854,    0.040,
         9.1000,  -5.245698,    0.040,
         9.1500,  -5.241546,    0.041,
         9.2000,  -5.237403,    0.041,
         9.2500,  -5.233252,    0.041,
         9.3000,  -5.229087,    0.041,
         9.3500,  -5.224955,    0.042,
         9.4000,  -5.220792,    0.042,
         9.4500,  -5.216643,    0.043,
         9.5000,  -5.212513,    0.043,
         9.5500,  -5.208302,    0.043,
         9.6000,  -5.203960,    0.044,
         9.6500,  -5.199851,    0.044,
         9.7000,  -5.195696,    0.044,
         9.7500,  -5.191531,    0.044,
         9.8000,  -5.187398,    0.045,
         9.8500,  -5.183230,    0.045,
         9.9000,  -5.179067,    0.045,
         9.9500,  -5.174897,    0.045,
        10.0000,  -5.170771,    0.046,
        10.0500,  -5.166613,    0.046,
        10.1000,  -5.162456,    0.046,
        10.1500,  -5.158323,    0.047,
        10.2000,  -5.154013,    0.047,
        10.2500,  -5.149807,    0.047,
        10.3000,  -5.145645,    0.047,
        10.3500,  -5.141494,    0.047,
        10.4000,  -5.137340,    0.047,
        10.4500,  -5.133198,    0.048,
        10.5000,  -5.129057,    0.048,
        10.5500,  -5.124927,    0.049,
        10.6000,  -5.120724,    0.049,
        10.6500,  -5.116593,    0.049,
        10.7000,  -5.112430,    0.049,
        10.7500,  -5.108275,    0.050,
        10.8000,  -5.104041,    0.050,
        10.8500,  -5.099798,    0.050,
        10.9000,  -5.095649,    0.051,
        10.9500,  -5.091476,    0.051,
        11.0000,  -5.087311,    0.051,
        11.0500,  -5.083161,    0.052,
        11.1000,  -5.079042,    0.053,
        11.1500,  -5.074864,    0.053,
        11.2000,  -5.070732,    0.054,
        11.2500,  -5.066535,    0.054,
        11.3000,  -5.062416,    0.054,
        11.3500,  -5.058288,    0.055,
        11.4000,  -5.054034,    0.055,
        11.4500,  -5.049785,    0.056,
        11.5000,  -5.045592,    0.056,
        11.5500,  -5.041479,    0.056,
        11.6000,  -5.037315,    0.056,
        11.6500,  -5.033154,    0.056,
        11.7000,  -5.029009,    0.057,
        11.7500,  -5.024875,    0.057,
        11.8000,  -5.020692,    0.058,
        11.8500,  -5.016545,    0.058,
        11.9000,  -5.012395,    0.058,
        11.9500,  -5.008249,    0.058,
        12.0000,  -5.004044,    0.058,
        12.0500,  -4.999731,    0.059,
        12.1000,  -4.995601,    0.060,
        12.1500,  -4.991442,    0.060,
        12.2000,  -4.987270,    0.060,
        12.2500,  -4.983152,    0.060,
        12.3000,  -4.978977,    0.061,
        12.3500,  -4.974821,    0.061,
        12.4000,  -4.970699,    0.062,
        12.4500,  -4.966533,    0.062,
        12.5000,  -4.962379,    0.062,
        12.5500,  -4.958212,    0.063,
        12.6000,  -4.954023,    0.063,
        12.6500,  -4.949740,    0.064,
        12.7000,  -4.945555,    0.064,
        12.7500,  -4.941421,    0.064,
        12.8000,  -4.937277,    0.065,
        12.8500,  -4.933111,    0.066,
        12.9000,  -4.928969,    0.066,
        12.9500,  -4.924794,    0.066,
        13.0000,  -4.920673,    0.066,
        13.0500,  -4.916483,    0.067,
        13.1000,  -4.912372,    0.068,
        13.1500,  -4.908215,    0.068,
        13.2000,  -4.903940,    0.068,
        13.2500,  -4.899691,    0.068,
        13.3000,  -4.895561,    0.069,
        13.3500,  -4.891392,    0.069,
        13.4000,  -4.887225,    0.070,
        13.4500,  -4.883088,    0.070,
        13.5000,  -4.878942,    0.070,
        13.5500,  -4.874774,    0.071,
        13.6000,  -4.870629,    0.072,
        13.6500,  -4.866490,    0.072,
        13.7000,  -4.862312,    0.072,
        13.7500,  -4.858172,    0.073,
        13.8000,  -4.853945,    0.073,
        13.8500,  -4.849660,    0.074,
        13.9000,  -4.845508,    0.074,
        13.9500,  -4.841370,    0.075,
        14.0000,  -4.837223,    0.075,
        14.0500,  -4.833052,    0.075,
        14.1000,  -4.828910,    0.075,
        14.1500,  -4.824791,    0.076,
        14.2000,  -4.820591,    0.076,
        14.2500,  -4.816475,    0.077,
        14.3000,  -4.812280,    0.077,
        14.3500,  -4.808158,    0.078,
        14.4000,  -4.803834,    0.079,
        14.4500,  -4.799632,    0.079,
        14.5000,  -4.795518,    0.079,
        14.5500,  -4.791352,    0.080,
        14.6000,  -4.787218,    0.081,
        14.6500,  -4.783022,    0.081,
        14.7000,  -4.778906,    0.081,
        14.7500,  -4.774729,    0.082,
        14.8000,  -4.770614,    0.083,
        14.8500,  -4.766406,    0.083,
        14.9000,  -4.762317,    0.083,
        14.9500,  -4.758081,    0.083,
        15.0000,  -4.753795,    0.084,
        15.0500,  -4.749652,    0.085,
        15.1000,  -4.745483,    0.085,
        15.1500,  -4.741319,    0.085,
        15.2000,  -4.737182,    0.085,
        15.2500,  -4.733061,    0.086,
        15.3000,  -4.728880,    0.087,
        15.3500,  -4.724706,    0.087,
        15.4000,  -4.720560,    0.087,
        15.4500,  -4.716431,    0.088,
        15.5000,  -4.712250,    0.088,
        15.5500,  -4.708002,    0.089,
        15.6000,  -4.703777,    0.090,
        15.6500,  -4.699645,    0.091,
        15.7000,  -4.695449,    0.091,
        15.7500,  -4.691309,    0.091,
        15.8000,  -4.687153,    0.093,
        15.8500,  -4.683006,    0.093,
        15.9000,  -4.678845,    0.093,
        15.9500,  -4.674698,    0.093,
        16.0000,  -4.670569,    0.094,
        16.0500,  -4.666412,    0.095,
        16.1000,  -4.662229,    0.096,
        16.1500,  -4.657903,    0.096,
        16.2000,  -4.653753,    0.096,
        16.2500,  -4.649591,    0.097,
        16.3000,  -4.645454,    0.098,
        16.3500,  -4.641308,    0.098,
        16.4000,  -4.637157,    0.098,
        16.4500,  -4.633000,    0.099,
        16.5000,  -4.628848,    0.100,
        16.5500,  -4.624687,    0.100,
        16.6000,  -4.620570,    0.101,
        16.6500,  -4.616388,    0.102,
        16.7000,  -4.612121,    0.102,
        16.7500,  -4.607910,    0.103,
        16.8000,  -4.603763,    0.104,
        16.8500,  -4.599613,    0.104,
        16.9000,  -4.595449,    0.104,
        16.9500,  -4.591305,    0.105,
        17.0000,  -4.587136,    0.106,
        17.0500,  -4.583000,    0.106,
        17.1000,  -4.578845,    0.106,
        17.1500,  -4.574697,    0.107,
        17.2000,  -4.570557,    0.108,
        17.2500,  -4.566357,    0.108,
        17.3000,  -4.562016,    0.109,
        17.3500,  -4.557894,    0.110,
        17.4000,  -4.553752,    0.110,
        17.4500,  -4.549575,    0.111,
        17.5000,  -4.545407,    0.112,
        17.5500,  -4.541327,    0.112,
        17.6000,  -4.537140,    0.112,
        17.6500,  -4.532993,    0.113,
        17.7000,  -4.528837,    0.114,
        17.7500,  -4.524714,    0.114,
        17.8000,  -4.520532,    0.115,
        17.8500,  -4.516218,    0.116,
        17.9000,  -4.512046,    0.117,
        17.9500,  -4.507901,    0.117,
        18.0000,  -4.503741,    0.118,
        18.0500,  -4.499594,    0.119,
        18.1000,  -4.495428,    0.119,
        18.1500,  -4.491310,    0.120,
        18.2000,  -4.487140,    0.121,
        18.2500,  -4.482994,    0.121,
        18.3000,  -4.478842,    0.122,
        18.3500,  -4.474697,    0.123,
        18.4000,  -4.470478,    0.123,
        18.4500,  -4.466197,    0.124,
        18.5000,  -4.462007,    0.125,
        18.5500,  -4.457918,    0.125,
        18.6000,  -4.453750,    0.126,
        18.6500,  -4.449601,    0.127,
        18.7000,  -4.445443,    0.127,
        18.7500,  -4.441298,    0.129,
        18.8000,  -4.437130,    0.129,
        18.8500,  -4.432993,    0.130,
        18.9000,  -4.428860,    0.131,
        18.9500,  -4.424672,    0.131,
        19.0000,  -4.420367,    0.132,
        19.0500,  -4.416215,    0.133,
        19.1000,  -4.412031,    0.133,
        19.1500,  -4.407916,    0.134,
        19.2000,  -4.403757,    0.135,
        19.2500,  -4.399605,    0.136,
        19.3000,  -4.395434,    0.136,
        19.3500,  -4.391316,    0.138,
        19.4000,  -4.387145,    0.138,
        19.4500,  -4.382997,    0.139,
        19.5000,  -4.378832,    0.140,
        19.5500,  -4.374584,    0.141,
        19.6000,  -4.370338,    0.142,
        19.6500,  -4.366227,    0.142,
        19.7000,  -4.362017,    0.143,
        19.7500,  -4.357935,    0.144,
        19.8000,  -4.353751,    0.144,
        19.8500,  -4.349590,    0.145,
        19.9000,  -4.345429,    0.146,
        19.9500,  -4.341335,    0.147,
        20.0000,  -4.337149,    0.148,
        20.0500,  -4.332996,    0.148,
        20.1000,  -4.328812,    0.150,
        20.1500,  -4.324515,    0.150,
        20.2000,  -4.320354,    0.151,
        20.2500,  -4.316200,    0.152,
        20.3000,  -4.312024,    0.153,
        20.3500,  -4.307909,    0.154,
        20.4000,  -4.303777,    0.155,
        20.4500,  -4.299585,    0.156,
        20.5000,  -4.295426,    0.157,
        20.5500,  -4.291319,    0.158,
        20.6000,  -4.287139,    0.159,
        20.6500,  -4.282994,    0.159,
        20.7000,  -4.278670,    0.160,
        20.7500,  -4.274489,    0.161,
        20.8000,  -4.270373,    0.162,
        20.8500,  -4.266212,    0.163,
        20.9000,  -4.262046,    0.163,
        20.9500,  -4.257897,    0.164,
        21.0000,  -4.253759,    0.166,
        21.0500,  -4.249582,    0.167,
        21.1000,  -4.245467,    0.168,
        21.1500,  -4.241308,    0.169,
        21.2000,  -4.237180,    0.169,
        21.2500,  -4.232887,    0.170,
        21.3000,  -4.228628,    0.171,
        21.3500,  -4.224544,    0.172,
        21.4000,  -4.220345,    0.173,
        21.4500,  -4.216181,    0.173,
        21.5000,  -4.212052,    0.175,
        21.5500,  -4.207907,    0.176,
        21.6000,  -4.203774,    0.178,
        21.6500,  -4.199591,    0.178,
        21.7000,  -4.195463,    0.179,
        21.7500,  -4.191284,    0.180,
        21.8000,  -4.187086,    0.181,
        21.8500,  -4.182778,    0.182,
        21.9000,  -4.178663,    0.183,
        21.9500,  -4.174479,    0.184,
        22.0000,  -4.170375,    0.185,
        22.0500,  -4.166215,    0.186,
        22.1000,  -4.162045,    0.187,
        22.1500,  -4.157923,    0.188,
        22.2000,  -4.153745,    0.190,
        22.2500,  -4.149600,    0.190,
        22.3000,  -4.145443,    0.192,
        22.3500,  -4.141263,    0.192,
        22.4000,  -4.136939,    0.194,
        22.4500,  -4.132818,    0.195,
        22.5000,  -4.128657,    0.196,
        22.5500,  -4.124515,    0.197,
        22.6000,  -4.120342,    0.198,
        22.6500,  -4.116214,    0.199,
        22.7000,  -4.112030,    0.200,
        22.7500,  -4.107920,    0.201,
        22.8000,  -4.103726,    0.203,
        22.8500,  -4.099611,    0.204,
        22.9000,  -4.095463,    0.205,
        22.9500,  -4.091130,    0.206,
        23.0000,  -4.086935,    0.207,
        23.0500,  -4.082785,    0.208,
        23.1000,  -4.078647,    0.209,
        23.1500,  -4.074499,    0.210,
        23.2000,  -4.070332,    0.211,
        23.2500,  -4.066194,    0.213,
        23.3000,  -4.062089,    0.214,
        23.3500,  -4.057895,    0.215,
        23.4000,  -4.053745,    0.217,
        23.4500,  -4.049603,    0.217,
        23.5000,  -4.045331,    0.219,
        23.5500,  -4.041093,    0.220,
        23.6000,  -4.036970,    0.221,
        23.6500,  -4.032793,    0.222,
        23.7000,  -4.028651,    0.223,
        23.7500,  -4.024496,    0.224,
        23.8000,  -4.020353,    0.226,
        23.8500,  -4.016224,    0.227,
        23.9000,  -4.012012,    0.228,
        23.9500,  -4.007903,    0.230,
        24.0000,  -4.003760,    0.230,
        24.0500,  -3.999564,    0.232,
        24.1000,  -3.995240,    0.233,
        24.1500,  -3.991114,    0.234,
        24.2000,  -3.986964,    0.236,
        24.2500,  -3.982788,    0.236,
        24.3000,  -3.978620,    0.238,
        24.3500,  -3.974491,    0.239,
        24.4000,  -3.970347,    0.241,
        24.4500,  -3.966210,    0.243,
        24.5000,  -3.962056,    0.244,
        24.5500,  -3.957879,    0.245,
        24.6000,  -3.953763,    0.246,
        24.6500,  -3.949453,    0.247,
        24.7000,  -3.945232,    0.248,
        24.7500,  -3.941107,    0.249,
        24.8000,  -3.936956,    0.251,
        24.8500,  -3.932826,    0.253,
        24.9000,  -3.928656,    0.254,
