Time,Displacement,Force
         0.0000,  -5.999710,    0.037,
         0.0500,  -5.999475,    0.037,
         0.1000,  -5.996495,    0.037,
         0.1500,  -5.992589,    0.039,
         0.2000,  -5.988539,    0.040,
         0.2500,  -5.984353,    0.041,
         0.3000,  -5.980113,    0.042,
         0.3500,  -5.976140,    0.043,
         0.4000,  -5.971865,    0.044,
         0.4500,  -5.967604,    0.045,
         0.5000,  -5.963511,    0.047,
         0.5500,  -5.959290,    0.047,
         0.6000,  -5.955120,    0.049,
         0.6500,  -5.951093,    0.049,
         0.7000,  -5.946717,    0.051,
         0.7500,  -5.942685,    0.052,
         0.8000,  -5.938439,    0.053,
         0.8500,  -5.934179,    0.054,
         0.9000,  -5.929904,    0.056,
         0.9500,  -5.925722,    0.056,
         1.0000,  -5.921629,    0.058,
         1.0500,  -5.917388,    0.059,
         1.1000,  -5.913258,    0.060,
         1.1500,  -5.909075,    0.061,
         1.2000,  -5.904904,    0.062,
         1.2500,  -5.900768,    0.063,
         1.3000,  -5.896616,    0.064,
         1.3500,  -5.892454,    0.065,
         1.4000,  -5.888315,    0.066,
         1.4500,  -5.884038,    0.068,
         1.5000,  -5.879959,    0.068,
         1.5500,  -5.875732,    0.070,
         1.6000,  -5.871385,    0.071,
         1.6500,  -5.867273,    0.072,
         1.7000,  -5.863099,    0.074,
         1.7500,  -5.858932,    0.075,
         1.8000,  -5.854794,    0.076,
         1.8500,  -5.850735,    0.077,
         1.9000,  -5.846481,    0.078,
         1.9500,  -5.842215,    0.080,
         2.0000,  -5.838164,    0.081,
         2.0500,  -5.833976,    0.082,
         2.1000,  -5.829813,    0.083,
         2.1500,  -5.825648,    0.085,
         2.2000,  -5.821505,    0.086,
         2.2500,  -5.817364,    0.087,
         2.3000,  -5.813039,    0.089,
         2.3500,  -5.808852,    0.089,
         2.4000,  -5.804640,    0.091,
         2.4500,  -5.800526,    0.092,
         2.5000,  -5.796339,    0.094,
         2.5500,  -5.792233,    0.096,
         2.6000,  -5.788074,    0.096,
         2.6500,  -5.783771,    0.098,
         2.7000,  -5.779725,    0.100,
         2.7500,  -5.775607,    0.101,
         2.8000,  -5.771403,    0.102,
         2.8500,  -5.767241,    0.104,
         2.9000,  -5.763089,    0.105,
         2.9500,  -5.758985,    0.106,
         3.0000,  -5.754537,    0.108,
         3.0500,  -5.750434,    0.110,
         3.1000,  -5.746226,    0.111,
         3.1500,  -5.742075,    0.112,
         3.2000,  -5.737843,    0.114,
         3.2500,  -5.733943,    0.116,
         3.3000,  -5.729609,    0.117,
         3.3500,  -5.725450,    0.119,
         3.4000,  -5.721366,    0.120,
         3.4500,  -5.717060,    0.122,
         3.5000,  -5.712877,    0.123,
         3.5500,  -5.709056,    0.125,
         3.6000,  -5.704689,    0.127,
         3.6500,  -5.700603,    0.129,
         3.7000,  -5.696263,    0.130,
         3.7500,  -5.692019,    0.132,
         3.8000,  -5.687846,    0.133,
         3.8500,  -5.683678,    0.136,
         3.9000,  -5.679508,    0.137,
         3.9500,  -5.675359,    0.139,
         4.0000,  -5.671164,    0.140,
         4.0500,  -5.667131,    0.142,
         4.1000,  -5.662823,    0.144,
         4.1500,  -5.658712,    0.146,
         4.2000,  -5.654517,    0.148,
         4.2500,  -5.650391,    0.150,
         4.3000,  -5.646351,    0.152,
         4.3500,  -5.642097,    0.153,
         4.4000,  -5.637824,    0.155,
         4.4500,  -5.633502,    0.157,
         4.5000,  -5.629450,    0.159,
         4.5500,  -5.625260,    0.161,
         4.6000,  -5.621155,    0.163,
         4.6500,  -5.616942,    0.165,
         4.7000,  -5.612846,    0.167,
         4.7500,  -5.608598,    0.169,
         4.8000,  -5.604586,    0.171,
         4.8500,  -5.600266,    0.173,
         4.9000,  -5.596262,    0.175,
         4.9500,  -5.591998,    0.177,
         5.0000,  -5.587879,    0.179,
         5.0500,  -5.583719,    0.181,
         5.1000,  -5.579390,    0.183,
         5.1500,  -5.575114,    0.185,
         5.2000,  -5.571040,    0.187,
         5.2500,  -5.567067,    0.189,
         5.3000,  -5.562741,    0.191,
         5.3500,  -5.558545,    0.193,
         5.4000,  -5.554503,    0.195,
         5.4500,  -5.550257,    0.198,
         5.5000,  -5.546159,    0.200,
         5.5500,  -5.541918,    0.202,
         5.6000,  -5.537866,    0.204,
         5.6500,  -5.533613,    0.206,
         5.7000,  -5.529521,    0.209,
         5.7500,  -5.525222,    0.211,
         5.8000,  -5.521025,    0.213,
         5.8500,  -5.516866,    0.215,
         5.9000,  -5.512649,    0.217,
         5.9500,  -5.508577,    0.220,
         6.0000,  -5.504364,    0.222,
         6.0500,  -5.500259,    0.224,
         6.1000,  -5.496095,    0.226,
         6.1500,  -5.491870,    0.229,
         6.2000,  -5.487873,    0.231,
         6.2500,  -5.483567,    0.234,
         6.3000,  -5.479442,    0.236,
         6.3500,  -5.475285,    0.238,
         6.4000,  -5.471054,    0.241,
         6.4500,  -5.466776,    0.243,
         6.5000,  -5.462673,    0.245,
         6.5500,  -5.458540,    0.248,
         6.6000,  -5.454271,    0.250,
         6.6500,  -5.450227,    0.253,
         6.7000,  -5.445997,    0.255,
         6.7500,  -5.441897,    0.257,
         6.8000,  -5.437683,    0.259,
         6.8500,  -5.433486,    0.262,
         6.9000,  -5.429423,    0.264,
         6.9500,  -5.425258,    0.267,
         7.0000,  -5.421048,    0.269,
         7.0500,  -5.416782,    0.272,
         7.1000,  -5.412597,    0.274,
         7.1500,  -5.408405,    0.277,
         7.2000,  -5.404364,    0.279,
         7.2500,  -5.400104,    0.282,
         7.3000,  -5.396004,    0.284,
         7.3500,  -5.391756,    0.287,
         7.4000,  -5.387646,    0.289,
         7.4500,  -5.383496,    0.292,
         7.5000,  -5.379367,    0.294,
         7.5500,  -5.375228,    0.297,
         7.6000,  -5.370993,    0.299,
         7.6500,  -5.366781,    0.302,
         7.7000,  -5.362624,    0.304,
         7.7500,  -5.358315,    0.308,
         7.8000,  -5.354145,    0.310,
         7.8500,  -5.350088,    0.312,
         7.9000,  -5.345921,    0.315,
         7.9500,  -5.341690,    0.318,
         8.0000,  -5.337574,    0.321,
         8.0500,  -5.333546,    0.323,
         8.1000,  -5.329295,    0.326,
         8.1500,  -5.325182,    0.329,
         8.2000,  -5.320893,    0.331,
         8.2500,  -5.316915,    0.333,
         8.3000,  -5.312665,    0.336,
         8.3500,  -5.308323,    0.339,
         8.4000,  -5.304166,    0.341,
         8.4500,  -5.300028,    0.344,
         8.5000,  -5.295865,    0.347,
         8.5500,  -5.291660,    0.350,
         8.6000,  -5.287471,    0.352,
         8.6500,  -5.283340,    0.355,
         8.7000,  -5.279331,    0.358,
         8.7500,  -5.275083,    0.360,
         8.8000,  -5.270943,    0.363,
         8.8500,  -5.266802,    0.367,
         8.9000,  -5.262579,    0.369,
         8.9500,  -5.258311,    0.372,
         9.0000,  -5.254198,    0.375,
         9.0500,  -5.249991,    0.378,
         9.1000,  -5.245776,    0.381,
         9.1500,  -5.241656,    0.383,
         9.2000,  -5.237515,    0.386,
         9.2500,  -5.233350,    0.389,
         9.3000,  -5.229183,    0.391,
         9.3500,  -5.225007,    0.394,
         9.4000,  -5.220802,    0.396,
         9.4500,  -5.216746,    0.399,
         9.5000,  -5.212634,    0.402,
         9.5500,  -5.208437,    0.404,
         9.6000,  -5.204091,    0.408,
         9.6500,  -5.199906,    0.411,
         9.7000,  -5.195771,    0.414,
         9.7500,  -5.191668,    0.417,
         9.8000,  -5.187424,    0.420,
         9.8500,  -5.183329,    0.423,
         9.9000,  -5.179136,    0.426,
         9.9500,  -5.175074,    0.429,
        10.0000,  -5.170836,    0.432,
        10.0500,  -5.166725,    0.435,
        10.1000,  -5.162494,    0.438,
        10.1500,  -5.158465,    0.442,
        10.2000,  -5.154112,    0.445,
        10.2500,  -5.149802,    0.449,
        10.3000,  -5.145795,    0.452,
        10.3500,  -5.141704,    0.455,
        10.4000,  -5.137464,    0.458,
        10.4500,  -5.133146,    0.461,
        10.5000,  -5.129123,    0.464,
        10.5500,  -5.125052,    0.467,
        10.6000,  -5.120834,    0.471,
        10.6500,  -5.116674,    0.474,
        10.7000,  -5.112548,    0.478,
        10.7500,  -5.108435,    0.480,
        10.8000,  -5.104145,    0.484,
        10.8500,  -5.099828,    0.488,
        10.9000,  -5.095736,    0.491,
        10.9500,  -5.091616,    0.493,
        11.0000,  -5.087398,    0.497,
        11.0500,  -5.083198,    0.498,
        11.1000,  -5.079128,    0.501,
        11.1500,  -5.074835,    0.503,
        11.2000,  -5.070874,    0.506,
        11.2500,  -5.066631,    0.509,
        11.3000,  -5.062523,    0.512,
        11.3500,  -5.058248,    0.514,
        11.4000,  -5.054179,    0.517,
        11.4500,  -5.049994,    0.520,
        11.5000,  -5.045648,    0.524,
        11.5500,  -5.041553,    0.527,
        11.6000,  -5.037458,    0.530,
        11.6500,  -5.033156,    0.533,
        11.7000,  -5.029056,    0.537,
        11.7500,  -5.025063,    0.539,
        11.8000,  -5.020737,    0.542,
        11.8500,  -5.016540,    0.543,
        11.9000,  -5.012459,    0.545,
        11.9500,  -5.008392,    0.547,
        12.0000,  -5.004096,    0.549,
        12.0500,  -4.999815,    0.550,
        12.1000,  -4.995529,    0.550,
        12.1500,  -4.991498,    0.551,
        12.2000,  -4.987365,    0.553,
        12.2500,  -4.983166,    0.554,
        12.3000,  -4.979030,    0.558,
        12.3500,  -4.974917,    0.560,
        12.4000,  -4.970732,    0.564,
        12.4500,  -4.966556,    0.564,
        12.5000,  -4.962424,    0.566,
        12.5500,  -4.958297,    0.569,
        12.6000,  -4.954183,    0.572,
        12.6500,  -4.949753,    0.577,
        12.7000,  -4.945653,    0.580,
        12.7500,  -4.941600,    0.583,
        12.8000,  -4.937272,    0.587,
        12.8500,  -4.933177,    0.591,
        12.9000,  -4.929167,    0.595,
        12.9500,  -4.924805,    0.600,
        13.0000,  -4.920694,    0.603,
        13.0500,  -4.916623,    0.608,
        13.1000,  -4.912495,    0.612,
        13.1500,  -4.908275,    0.616,
        13.2000,  -4.904183,    0.620,
        13.2500,  -4.899738,    0.624,
        13.3000,  -4.895610,    0.627,
        13.3500,  -4.891542,    0.631,
        13.4000,  -4.887324,    0.634,
        13.4500,  -4.883058,    0.634,
        13.5000,  -4.879062,    0.633,
        13.5500,  -4.874800,    0.636,
        13.6000,  -4.870768,    0.638,
        13.6500,  -4.866501,    0.641,
        13.7000,  -4.862400,    0.644,
        13.7500,  -4.858365,    0.648,
        13.8000,  -4.853997,    0.652,
        13.8500,  -4.849727,    0.656,
        13.9000,  -4.845664,    0.659,
        13.9500,  -4.841387,    0.663,
        14.0000,  -4.837353,    0.667,
        14.0500,  -4.833168,    0.671,
        14.1000,  -4.828981,    0.675,
        14.1500,  -4.824844,    0.680,
        14.2000,  -4.820689,    0.682,
        14.2500,  -4.816523,    0.683,
        14.3000,  -4.812333,    0.686,
        14.3500,  -4.808253,    0.690,
        14.4000,  -4.803903,    0.694,
        14.4500,  -4.799812,    0.698,
        14.5000,  -4.795575,    0.702,
        14.5500,  -4.791419,    0.705,
        14.6000,  -4.787291,    0.709,
        14.6500,  -4.783176,    0.713,
        14.7000,  -4.779024,    0.717,
        14.7500,  -4.774757,    0.722,
        14.8000,  -4.770732,    0.724,
        14.8500,  -4.766528,    0.729,
        14.9000,  -4.762369,    0.733,
        14.9500,  -4.758206,    0.736,
        15.0000,  -4.753881,    0.742,
        15.0500,  -4.749687,    0.745,
        15.1000,  -4.745576,    0.749,
        15.1500,  -4.741287,    0.752,
        15.2000,  -4.737309,    0.756,
        15.2500,  -4.733211,    0.761,
        15.3000,  -4.728903,    0.766,
        15.3500,  -4.724849,    0.770,
        15.4000,  -4.720661,    0.771,
        15.4500,  -4.716494,    0.774,
        15.5000,  -4.712338,    0.778,
        15.5500,  -4.708021,    0.783,
        15.6000,  -4.703823,    0.787,
        15.6500,  -4.699715,    0.790,
        15.7000,  -4.695590,    0.793,
        15.7500,  -4.691271,    0.794,
        15.8000,  -4.687161,    0.795,
        15.8500,  -4.683093,    0.797,
        15.9000,  -4.679035,    0.801,
        15.9500,  -4.674758,    0.806,
        16.0000,  -4.670653,    0.810,
        16.0500,  -4.666479,    0.814,
        16.1000,  -4.662208,    0.816,
        16.1500,  -4.658074,    0.820,
        16.2000,  -4.653904,    0.826,
        16.2500,  -4.649574,    0.831,
        16.3000,  -4.645591,    0.836,
        16.3500,  -4.641482,    0.841,
        16.4000,  -4.637195,    0.846,
        16.4500,  -4.633107,    0.849,
        16.5000,  -4.628945,    0.854,
        16.5500,  -4.624765,    0.858,
        16.6000,  -4.620638,    0.864,
        16.6500,  -4.616553,    0.869,
        16.7000,  -4.612235,    0.875,
        16.7500,  -4.607981,    0.881,
        16.8000,  -4.603817,    0.884,
        16.8500,  -4.599691,    0.888,
        16.9000,  -4.595442,    0.892,
        16.9500,  -4.591384,    0.897,
        17.0000,  -4.587211,    0.902,
        17.0500,  -4.583061,    0.907,
        17.1000,  -4.578994,    0.912,
        17.1500,  -4.574742,    0.917,
        17.2000,  -4.570708,    0.920,
        17.2500,  -4.566453,    0.925,
        17.3000,  -4.562075,    0.931,
        17.3500,  -4.557965,    0.936,
        17.4000,  -4.553852,    0.942,
        17.4500,  -4.549750,    0.947,
        17.5000,  -4.545431,    0.954,
        17.5500,  -4.541460,    0.959,
        17.6000,  -4.537323,    0.965,
        17.6500,  -4.532976,    0.972,
        17.7000,  -4.528939,    0.976,
        17.7500,  -4.524763,    0.981,
        17.8000,  -4.520646,    0.986,
        17.8500,  -4.516409,    0.992,
        17.9000,  -4.512147,    0.997,
        17.9500,  -4.507834,    1.001,
        18.0000,  -4.503816,    1.001,
        18.0500,  -4.499735,    1.007,
        18.1000,  -4.495589,    1.012,
        18.1500,  -4.491288,    1.019,
        18.2000,  -4.487179,    1.023,
        18.2500,  -4.483041,    1.028,
        18.3000,  -4.479016,    1.034,
        18.3500,  -4.474855,    1.040,
        18.4000,  -4.470430,    1.047,
        18.4500,  -4.466287,    1.050,
        18.5000,  -4.462062,    1.055,
        18.5500,  -4.458083,    1.060,
        18.6000,  -4.453795,    1.066,
        18.6500,  -4.449774,    1.072,
        18.7000,  -4.445558,    1.077,
        18.7500,  -4.441283,    1.083,
        18.8000,  -4.437182,    1.089,
        18.8500,  -4.433006,    1.095,
        18.9000,  -4.429172,    1.099,
        18.9500,  -4.424771,    1.106,
        19.0000,  -4.420403,    1.112,
        19.0500,  -4.416397,    1.118,
        19.1000,  -4.412107,    1.125,
        19.1500,  -4.407996,    1.131,
        19.2000,  -4.403806,    1.137,
        19.2500,  -4.399638,    1.143,
        19.3000,  -4.395589,    1.148,
        19.3500,  -4.391442,    1.154,
        19.4000,  -4.387158,    1.161,
        19.4500,  -4.383072,    1.167,
        19.5000,  -4.378965,    1.172,
        19.5500,  -4.374677,    1.180,
        19.6000,  -4.370342,    1.187,
        19.6500,  -4.366399,    1.192,
        19.7000,  -4.362176,    1.197,
        19.7500,  -4.358000,    1.203,
        19.8000,  -4.353826,    1.209,
        19.8500,  -4.349661,    1.211,
        19.9000,  -4.345379,    1.215,
        19.9500,  -4.341266,    1.221,
        20.0000,  -4.337330,    1.225,
        20.0500,  -4.333185,    1.230,
        20.1000,  -4.328891,    1.236,
        20.1500,  -4.324589,    1.244,
        20.2000,  -4.320358,    1.251,
        20.2500,  -4.316241,    1.258,
        20.3000,  -4.312342,    1.264,
        20.3500,  -4.307947,    1.272,
        20.4000,  -4.303937,    1.279,
        20.4500,  -4.299709,    1.286,
        20.5000,  -4.295533,    1.293,
        20.5500,  -4.291366,    1.298,
        20.6000,  -4.287282,    1.304,
        20.6500,  -4.282891,    1.307,
        20.7000,  -4.278814,    1.302,
        20.7500,  -4.274518,    1.307,
        20.8000,  -4.270362,    1.311,
        20.8500,  -4.266397,    1.317,
        20.9000,  -4.262153,    1.325,
        20.9500,  -4.257947,    1.333,
        21.0000,  -4.253940,    1.338,
        21.0500,  -4.249602,    1.346,
        21.1000,  -4.245592,    1.352,
        21.1500,  -4.241401,    1.360,
        21.2000,  -4.237265,    1.366,
        21.2500,  -4.233059,    1.373,
        21.3000,  -4.228708,    1.381,
        21.3500,  -4.224590,    1.388,
        21.4000,  -4.220447,    1.395,
        21.4500,  -4.216307,    1.402,
        21.5000,  -4.212174,    1.410,
        21.5500,  -4.208002,    1.417,
        21.6000,  -4.203881,    1.424,
        21.6500,  -4.199672,    1.432,
        21.7000,  -4.195455,    1.436,
        21.7500,  -4.191361,    1.442,
        21.8000,  -4.187232,    1.451,
        21.8500,  -4.182935,    1.458,
        21.9000,  -4.178798,    1.463,
        21.9500,  -4.174582,    1.470,
        22.0000,  -4.170290,    1.473,
        22.0500,  -4.166138,    1.466,
        22.1000,  -4.162138,    1.473,
        22.1500,  -4.157931,    1.480,
        22.2000,  -4.153849,    1.487,
        22.2500,  -4.149719,    1.495,
        22.3000,  -4.145526,    1.502,
        22.3500,  -4.141378,    1.509,
        22.4000,  -4.137078,    1.518,
        22.4500,  -4.132837,    1.526,
        22.5000,  -4.128783,    1.533,
        22.5500,  -4.124653,    1.541,
        22.6000,  -4.120359,    1.549,
        22.6500,  -4.116289,    1.556,
        22.7000,  -4.112164,    1.563,
        22.7500,  -4.107997,    1.570,
        22.8000,  -4.103871,    1.577,
        22.8500,  -4.099578,    1.585,
        22.9000,  -4.095501,    1.593,
        22.9500,  -4.091204,    1.598,
        23.0000,  -4.086976,    1.601,
        23.0500,  -4.082983,    1.607,
        23.1000,  -4.078744,    1.614,
        23.1500,  -4.074559,    1.622,
        23.2000,  -4.070452,    1.629,
        23.2500,  -4.066301,    1.636,
        23.3000,  -4.062069,    1.644,
        23.3500,  -4.058019,    1.652,
        23.4000,  -4.053898,    1.659,
        23.4500,  -4.049665,    1.667,
        23.5000,  -4.045525,    1.675,
        23.5500,  -4.041096,    1.684,
        23.6000,  -4.037046,    1.690,
        23.6500,  -4.032827,    1.698,
        23.7000,  -4.028707,    1.705,
        23.7500,  -4.024644,    1.711,
        23.8000,  -4.020441,    1.713,
        23.8500,  -4.016210,    1.720,
        23.9000,  -4.012054,    1.728,
        23.9500,  -4.008018,    1.736,
        24.0000,  -4.003812,    1.741,
        24.0500,  -3.999434,    1.734,
        24.1000,  -3.995386,    1.742,
        24.1500,  -3.991132,    1.749,
        24.2000,  -3.987071,    1.754,
        24.2500,  -3.982813,    1.763,
        24.3000,  -3.978693,    1.767,
        24.3500,  -3.974485,    1.769,
        24.4000,  -3.970554,    1.775,
        24.4500,  -3.966251,    1.784,
        24.5000,  -3.962175,    1.791,
        24.5500,  -3.957989,    1.799,
        24.6000,  -3.953784,    1.808,
        24.6500,  -3.949455,    1.816,
        24.7000,  -3.945292,    1.823,
        24.7500,  -3.941233,    1.829,
        24.8000,  -3.937169,    1.836,
        24.8500,  -3.932773,    1.847,
        24.9000,  -3.928697,    1.853,
