time,Force,Displacement
         0.0000,  -5.999844,    0.045,
         0.0500,  -5.999717,    0.045,
         0.1000,  -5.996795,    0.046,
         0.1500,  -5.992624,    0.047,
         0.2000,  -5.988540,    0.047,
         0.2500,  -5.984374,    0.048,
         0.3000,  -5.980174,    0.049,
         0.3500,  -5.976009,    0.049,
         0.4000,  -5.971853,    0.051,
         0.4500,  -5.967632,    0.051,
         0.5000,  -5.963452,    0.052,
         0.5500,  -5.959314,    0.054,
         0.6000,  -5.955114,    0.054,
         0.6500,  -5.950975,    0.055,
         0.7000,  -5.946794,    0.056,
         0.7500,  -5.942616,    0.056,
         0.8000,  -5.938444,    0.057,
         0.8500,  -5.934121,    0.058,
         0.9000,  -5.929932,    0.058,
         0.9500,  -5.925773,    0.059,
         1.0000,  -5.921591,    0.060,
         1.0500,  -5.917408,    0.060,
         1.1000,  -5.913256,    0.061,
         1.1500,  -5.909095,    0.062,
         1.2000,  -5.904916,    0.062,
         1.2500,  -5.900736,    0.063,
         1.3000,  -5.896646,    0.064,
         1.3500,  -5.892423,    0.064,
         1.4000,  -5.888245,    0.066,
         1.4500,  -5.884092,    0.066,
         1.5000,  -5.879932,    0.067,
         1.5500,  -5.875694,    0.068,
         1.6000,  -5.871444,    0.068,
         1.6500,  -5.867267,    0.069,
         1.7000,  -5.863084,    0.069,
         1.7500,  -5.858930,    0.070,
         1.8000,  -5.854762,    0.070,
         1.8500,  -5.850618,    0.071,
         1.9000,  -5.846422,    0.072,
         1.9500,  -5.842289,    0.073,
         2.0000,  -5.838110,    0.073,
         2.0500,  -5.833963,    0.074,
         2.1000,  -5.829775,    0.075,
         2.1500,  -5.825597,    0.076,
         2.2000,  -5.821492,    0.076,
         2.2500,  -5.817281,    0.077,
         2.3000,  -5.812979,    0.078,
         2.3500,  -5.808814,    0.079,
         2.4000,  -5.804600,    0.079,
         2.4500,  -5.800510,    0.080,
         2.5000,  -5.796344,    0.081,
         2.5500,  -5.792170,    0.081,
         2.6000,  -5.788011,    0.082,
         2.6500,  -5.783846,    0.083,
         2.7000,  -5.779683,    0.083,
         2.7500,  -5.775540,    0.084,
         2.8000,  -5.771384,    0.085,
         2.8500,  -5.767198,    0.085,
         2.9000,  -5.763058,    0.086,
         2.9500,  -5.758913,    0.087,
         3.0000,  -5.754605,    0.087,
         3.0500,  -5.750385,    0.089,
         3.1000,  -5.746241,    0.089,
         3.1500,  -5.742085,    0.090,
         3.2000,  -5.737947,    0.091,
         3.2500,  -5.733741,    0.091,
         3.3000,  -5.729608,    0.092,
         3.3500,  -5.725434,    0.093,
         3.4000,  -5.721311,    0.093,
         3.4500,  -5.717101,    0.094,
         3.5000,  -5.712968,    0.095,
         3.5500,  -5.708806,    0.096,
         3.6000,  -5.704661,    0.096,
         3.6500,  -5.700506,    0.097,
         3.7000,  -5.696219,    0.098,
         3.7500,  -5.691994,    0.099,
         3.8000,  -5.687834,    0.100,
         3.8500,  -5.683666,    0.100,
         3.9000,  -5.679551,    0.101,
         3.9500,  -5.675338,    0.102,
         4.0000,  -5.671211,    0.103,
         4.0500,  -5.667070,    0.104,
         4.1000,  -5.662884,    0.104,
         4.1500,  -5.658720,    0.105,
         4.2000,  -5.654581,    0.106,
         4.2500,  -5.650417,    0.106,
         4.3000,  -5.646284,    0.107,
         4.3500,  -5.642081,    0.108,
         4.4000,  -5.637803,    0.108,
         4.4500,  -5.633609,    0.109,
         4.5000,  -5.629418,    0.110,
         4.5500,  -5.625296,    0.111,
         4.6000,  -5.621170,    0.112,
         4.6500,  -5.616964,    0.112,
         4.7000,  -5.612791,    0.114,
         4.7500,  -5.608676,    0.114,
         4.8000,  -5.604544,    0.115,
         4.8500,  -5.600365,    0.116,
         4.9000,  -5.596200,    0.117,
         4.9500,  -5.592079,    0.117,
         5.0000,  -5.587905,    0.118,
         5.0500,  -5.583630,    0.119,
         5.1000,  -5.579381,    0.120,
         5.1500,  -5.575206,    0.121,
         5.2000,  -5.571032,    0.122,
         5.2500,  -5.566918,    0.123,
         5.3000,  -5.562756,    0.123,
         5.3500,  -5.558595,    0.125,
         5.4000,  -5.554472,    0.125,
         5.4500,  -5.550303,    0.126,
         5.5000,  -5.546118,    0.127,
         5.5500,  -5.542013,    0.127,
         5.6000,  -5.537811,    0.129,
         5.6500,  -5.533676,    0.129,
         5.7000,  -5.529457,    0.130,
         5.7500,  -5.525194,    0.131,
         5.8000,  -5.520989,    0.132,
         5.8500,  -5.516854,    0.133,
         5.9000,  -5.512685,    0.133,
         5.9500,  -5.508530,    0.135,
         6.0000,  -5.504399,    0.136,
         6.0500,  -5.500214,    0.137,
         6.1000,  -5.496096,    0.138,
         6.1500,  -5.491925,    0.138,
         6.2000,  -5.487758,    0.140,
         6.2500,  -5.483570,    0.140,
         6.3000,  -5.479466,    0.141,
         6.3500,  -5.475269,    0.142,
         6.4000,  -5.470967,    0.142,
         6.4500,  -5.466820,    0.144,
         6.5000,  -5.462618,    0.144,
         6.5500,  -5.458482,    0.146,
         6.6000,  -5.454350,    0.146,
         6.6500,  -5.450162,    0.148,
         6.7000,  -5.446019,    0.148,
         6.7500,  -5.441839,    0.150,
         6.8000,  -5.437702,    0.150,
         6.8500,  -5.433554,    0.151,
         6.9000,  -5.429399,    0.152,
         6.9500,  -5.425260,    0.153,
         7.0000,  -5.421079,    0.154,
         7.0500,  -5.416789,    0.155,
         7.1000,  -5.412554,    0.156,
         7.1500,  -5.408425,    0.157,
         7.2000,  -5.404257,    0.158,
         7.2500,  -5.400119,    0.159,
         7.3000,  -5.395946,    0.160,
         7.3500,  -5.391803,    0.161,
         7.4000,  -5.387653,    0.163,
         7.4500,  -5.383494,    0.163,
         7.5000,  -5.379312,    0.164,
         7.5500,  -5.375172,    0.165,
         7.6000,  -5.371020,    0.166,
         7.6500,  -5.366831,    0.167,
         7.7000,  -5.362577,    0.168,
         7.7500,  -5.358378,    0.169,
         7.8000,  -5.354214,    0.170,
         7.8500,  -5.350052,    0.171,
         7.9000,  -5.345888,    0.173,
         7.9500,  -5.341757,    0.173,
         8.0000,  -5.337582,    0.175,
         8.0500,  -5.333413,    0.176,
         8.1000,  -5.329273,    0.177,
         8.1500,  -5.325154,    0.178,
         8.2000,  -5.320945,    0.179,
         8.2500,  -5.316813,    0.180,
         8.3000,  -5.312634,    0.181,
         8.3500,  -5.308337,    0.182,
         8.4000,  -5.304170,    0.184,
         8.4500,  -5.300002,    0.185,
         8.5000,  -5.295865,    0.186,
         8.5500,  -5.291661,    0.187,
         8.6000,  -5.287526,    0.188,
         8.6500,  -5.283422,    0.189,
         8.7000,  -5.279248,    0.190,
         8.7500,  -5.275085,    0.191,
         8.8000,  -5.270932,    0.192,
         8.8500,  -5.266754,    0.193,
         8.9000,  -5.262617,    0.194,
         8.9500,  -5.258384,    0.196,
         9.0000,  -5.254101,    0.197,
         9.0500,  -5.249961,    0.199,
         9.1000,  -5.245821,    0.199,
         9.1500,  -5.241622,    0.201,
         9.2000,  -5.237480,    0.202,
         9.2500,  -5.233358,    0.203,
         9.3000,  -5.229186,    0.204,
         9.3500,  -5.225006,    0.205,
         9.4000,  -5.220851,    0.207,
         9.4500,  -5.216705,    0.207,
         9.5000,  -5.212569,    0.209,
         9.5500,  -5.208420,    0.210,
         9.6000,  -5.204045,    0.211,
         9.6500,  -5.199925,    0.213,
         9.7000,  -5.195777,    0.213,
         9.7500,  -5.191591,    0.215,
         9.8000,  -5.187405,    0.216,
         9.8500,  -5.183314,    0.217,
         9.9000,  -5.179118,    0.219,
         9.9500,  -5.174972,    0.220,
        10.0000,  -5.170817,    0.221,
        10.0500,  -5.166675,    0.222,
        10.1000,  -5.162519,    0.224,
        10.1500,  -5.158388,    0.225,
        10.2000,  -5.154095,    0.226,
        10.2500,  -5.149844,    0.228,
        10.3000,  -5.145728,    0.228,
        10.3500,  -5.141579,    0.230,
        10.4000,  -5.137381,    0.231,
        10.4500,  -5.133257,    0.232,
        10.5000,  -5.129120,    0.234,
        10.5500,  -5.124985,    0.234,
        10.6000,  -5.120802,    0.236,
        10.6500,  -5.116645,    0.237,
        10.7000,  -5.112502,    0.238,
        10.7500,  -5.108348,    0.240,
        10.8000,  -5.104075,    0.241,
        10.8500,  -5.099874,    0.242,
        10.9000,  -5.095680,    0.243,
        10.9500,  -5.091536,    0.245,
        11.0000,  -5.087378,    0.246,
        11.0500,  -5.083215,    0.247,
        11.1000,  -5.079071,    0.249,
        11.1500,  -5.074930,    0.250,
        11.2000,  -5.070780,    0.251,
        11.2500,  -5.066611,    0.252,
        11.3000,  -5.062474,    0.253,
        11.3500,  -5.058312,    0.254,
        11.4000,  -5.054116,    0.255,
        11.4500,  -5.049824,    0.257,
        11.5000,  -5.045671,    0.258,
        11.5500,  -5.041531,    0.259,
        11.6000,  -5.037329,    0.260,
        11.6500,  -5.033233,    0.262,
        11.7000,  -5.029069,    0.263,
        11.7500,  -5.024886,    0.264,
        11.8000,  -5.020766,    0.266,
        11.8500,  -5.016602,    0.266,
        11.9000,  -5.012460,    0.268,
        11.9500,  -5.008283,    0.269,
        12.0000,  -5.004129,    0.270,
        12.0500,  -4.999801,    0.271,
        12.1000,  -4.995631,    0.273,
        12.1500,  -4.991506,    0.274,
        12.2000,  -4.987334,    0.275,
        12.2500,  -4.983175,    0.276,
        12.3000,  -4.979058,    0.278,
        12.3500,  -4.974866,    0.279,
        12.4000,  -4.970735,    0.280,
        12.4500,  -4.966560,    0.281,
        12.5000,  -4.962425,    0.283,
        12.5500,  -4.958274,    0.284,
        12.6000,  -4.954023,    0.285,
        12.6500,  -4.949805,    0.287,
        12.7000,  -4.945638,    0.288,
        12.7500,  -4.941430,    0.289,
        12.8000,  -4.937343,    0.291,
        12.8500,  -4.933166,    0.292,
        12.9000,  -4.928994,    0.293,
        12.9500,  -4.924859,    0.294,
        13.0000,  -4.920691,    0.295,
        13.0500,  -4.916550,    0.297,
        13.1000,  -4.912415,    0.298,
        13.1500,  -4.908264,    0.299,
        13.2000,  -4.904022,    0.301,
        13.2500,  -4.899762,    0.302,
        13.3000,  -4.895592,    0.304,
        13.3500,  -4.891457,    0.305,
        13.4000,  -4.887291,    0.306,
        13.4500,  -4.883134,    0.308,
        13.5000,  -4.879010,    0.308,
        13.5500,  -4.874847,    0.310,
        13.6000,  -4.870664,    0.311,
        13.6500,  -4.866518,    0.312,
        13.7000,  -4.862382,    0.313,
        13.7500,  -4.858215,    0.314,
        13.8000,  -4.853946,    0.315,
        13.8500,  -4.849743,    0.316,
        13.9000,  -4.845570,    0.317,
        13.9500,  -4.841447,    0.319,
        14.0000,  -4.837272,    0.320,
        14.0500,  -4.833102,    0.322,
        14.1000,  -4.828981,    0.323,
        14.1500,  -4.824795,    0.325,
        14.2000,  -4.820669,    0.326,
        14.2500,  -4.816509,    0.327,
        14.3000,  -4.812361,    0.328,
        14.3500,  -4.808190,    0.329,
        14.4000,  -4.803899,    0.331,
        14.4500,  -4.799705,    0.332,
        14.5000,  -4.795556,    0.333,
        14.5500,  -4.791419,    0.335,
        14.6000,  -4.787252,    0.337,
        14.6500,  -4.783111,    0.337,
        14.7000,  -4.778927,    0.339,
        14.7500,  -4.774806,    0.340,
        14.8000,  -4.770648,    0.341,
        14.8500,  -4.766468,    0.343,
        14.9000,  -4.762374,    0.345,
        14.9500,  -4.758166,    0.346,
        15.0000,  -4.753847,    0.348,
        15.0500,  -4.749677,    0.350,
        15.1000,  -4.745520,    0.350,
        15.1500,  -4.741393,    0.352,
        15.2000,  -4.737206,    0.354,
        15.2500,  -4.733068,    0.354,
        15.3000,  -4.728947,    0.356,
        15.3500,  -4.724779,    0.358,
        15.4000,  -4.720620,    0.360,
        15.4500,  -4.716440,    0.361,
        15.5000,  -4.712328,    0.362,
        15.5500,  -4.708031,    0.364,
        15.6000,  -4.703809,    0.365,
        15.6500,  -4.699695,    0.367,
        15.7000,  -4.695514,    0.369,
        15.7500,  -4.691354,    0.370,
        15.8000,  -4.687207,    0.372,
        15.8500,  -4.683069,    0.373,
        15.9000,  -4.678902,    0.375,
        15.9500,  -4.674719,    0.376,
        16.0000,  -4.670599,    0.377,
        16.0500,  -4.666460,    0.379,
        16.1000,  -4.662293,    0.381,
        16.1500,  -4.657952,    0.383,
        16.2000,  -4.653793,    0.384,
        16.2500,  -4.649676,    0.386,
        16.3000,  -4.645469,    0.388,
        16.3500,  -4.641345,    0.389,
        16.4000,  -4.637188,    0.390,
        16.4500,  -4.633072,    0.392,
        16.5000,  -4.628873,    0.394,
        16.5500,  -4.624706,    0.396,
        16.6000,  -4.620601,    0.398,
        16.6500,  -4.616399,    0.399,
        16.7000,  -4.612177,    0.400,
        16.7500,  -4.607913,    0.402,
        16.8000,  -4.603787,    0.404,
        16.8500,  -4.599643,    0.405,
        16.9000,  -4.595476,    0.407,
        16.9500,  -4.591327,    0.409,
        17.0000,  -4.587178,    0.411,
        17.0500,  -4.583021,    0.412,
        17.1000,  -4.578873,    0.413,
        17.1500,  -4.574727,    0.415,
        17.2000,  -4.570629,    0.417,
        17.2500,  -4.566375,    0.419,
        17.3000,  -4.562106,    0.421,
        17.3500,  -4.557916,    0.423,
        17.4000,  -4.553767,    0.423,
        17.4500,  -4.549624,    0.425,
        17.5000,  -4.545477,    0.427,
        17.5500,  -4.541328,    0.430,
        17.6000,  -4.537211,    0.431,
        17.6500,  -4.533006,    0.433,
        17.7000,  -4.528844,    0.434,
        17.7500,  -4.524736,    0.436,
        17.8000,  -4.520560,    0.438,
        17.8500,  -4.516285,    0.439,
        17.9000,  -4.512066,    0.441,
        17.9500,  -4.507919,    0.443,
        18.0000,  -4.503791,    0.444,
        18.0500,  -4.499618,    0.446,
        18.1000,  -4.495475,    0.448,
        18.1500,  -4.491310,    0.450,
        18.2000,  -4.487199,    0.451,
        18.2500,  -4.483029,    0.453,
        18.3000,  -4.478841,    0.455,
        18.3500,  -4.474745,    0.457,
        18.4000,  -4.470506,    0.459,
        18.4500,  -4.466253,    0.461,
        18.5000,  -4.462086,    0.463,
        18.5500,  -4.457954,    0.465,
        18.6000,  -4.453799,    0.467,
        18.6500,  -4.449625,    0.468,
        18.7000,  -4.445453,    0.470,
        18.7500,  -4.441366,    0.472,
        18.8000,  -4.437178,    0.473,
        18.8500,  -4.433019,    0.475,
        18.9000,  -4.428841,    0.476,
        18.9500,  -4.424708,    0.478,
        19.0000,  -4.420417,    0.480,
        19.0500,  -4.416244,    0.482,
        19.1000,  -4.412070,    0.484,
        19.1500,  -4.407910,    0.486,
        19.2000,  -4.403805,    0.487,
        19.2500,  -4.399629,    0.490,
        19.3000,  -4.395481,    0.492,
        19.3500,  -4.391359,    0.494,
        19.4000,  -4.387175,    0.496,
        19.4500,  -4.383029,    0.497,
        19.5000,  -4.378866,    0.499,
        19.5500,  -4.374627,    0.502,
        19.6000,  -4.370394,    0.504,
        19.6500,  -4.366227,    0.506,
        19.7000,  -4.362091,    0.508,
        19.7500,  -4.357947,    0.510,
        19.8000,  -4.353777,    0.512,
        19.8500,  -4.349639,    0.515,
        19.9000,  -4.345482,    0.517,
        19.9500,  -4.341345,    0.520,
        20.0000,  -4.337189,    0.522,
        20.0500,  -4.333043,    0.524,
        20.1000,  -4.328806,    0.526,
        20.1500,  -4.324541,    0.528,
        20.2000,  -4.320370,    0.531,
        20.2500,  -4.316225,    0.533,
        20.3000,  -4.312091,    0.535,
        20.3500,  -4.307952,    0.537,
        20.4000,  -4.303781,    0.540,
        20.4500,  -4.299652,    0.542,
        20.5000,  -4.295469,    0.544,
        20.5500,  -4.291345,    0.546,
        20.6000,  -4.287170,    0.548,
        20.6500,  -4.283023,    0.550,
        20.7000,  -4.278702,    0.553,
        20.7500,  -4.274527,    0.554,
        20.8000,  -4.270380,    0.556,
        20.8500,  -4.266195,    0.558,
        20.9000,  -4.262066,    0.558,
        20.9500,  -4.257926,    0.560,
        21.0000,  -4.253782,    0.563,
        21.0500,  -4.249647,    0.565,
        21.1000,  -4.245449,    0.567,
        21.1500,  -4.241361,    0.569,
        21.2000,  -4.237191,    0.571,
        21.2500,  -4.232899,    0.573,
        21.3000,  -4.228665,    0.575,
        21.3500,  -4.224513,    0.577,
        21.4000,  -4.220400,    0.579,
        21.4500,  -4.216210,    0.581,
        21.5000,  -4.212087,    0.583,
        21.5500,  -4.207929,    0.585,
        21.6000,  -4.203799,    0.587,
        21.6500,  -4.199631,    0.589,
        21.7000,  -4.195457,    0.591,
        21.7500,  -4.191330,    0.593,
        21.8000,  -4.187100,    0.596,
        21.8500,  -4.182843,    0.598,
        21.9000,  -4.178656,    0.600,
        21.9500,  -4.174550,    0.602,
        22.0000,  -4.170394,    0.605,
        22.0500,  -4.166193,    0.607,
        22.1000,  -4.162056,    0.610,
        22.1500,  -4.157937,    0.611,
        22.2000,  -4.153778,    0.614,
        22.2500,  -4.149596,    0.615,
        22.3000,  -4.145432,    0.617,
        22.3500,  -4.141281,    0.619,
        22.4000,  -4.137000,    0.621,
        22.4500,  -4.132833,    0.623,
        22.5000,  -4.128639,    0.625,
        22.5500,  -4.124523,    0.626,
        22.6000,  -4.120363,    0.629,
        22.6500,  -4.116221,    0.631,
        22.7000,  -4.112073,    0.633,
        22.7500,  -4.107890,    0.635,
        22.8000,  -4.103757,    0.636,
        22.8500,  -4.099596,    0.638,
        22.9000,  -4.095454,    0.640,
        22.9500,  -4.091182,    0.642,
        23.0000,  -4.086938,    0.644,
        23.0500,  -4.082814,    0.646,
        23.1000,  -4.078658,    0.648,
        23.1500,  -4.074512,    0.651,
        23.2000,  -4.070339,    0.653,
        23.2500,  -4.066203,    0.655,
        23.3000,  -4.062106,    0.657,
        23.3500,  -4.057913,    0.660,
        23.4000,  -4.053782,    0.663,
        23.4500,  -4.049623,    0.665,
        23.5000,  -4.045393,    0.668,
        23.5500,  -4.041100,    0.671,
        23.6000,  -4.036979,    0.673,
        23.6500,  -4.032813,    0.677,
        23.7000,  -4.028688,    0.680,
        23.7500,  -4.024527,    0.682,
        23.8000,  -4.020360,    0.685,
        23.8500,  -4.016220,    0.688,
        23.9000,  -4.012081,    0.690,
        23.9500,  -4.007907,    0.693,
        24.0000,  -4.003756,    0.696,
        24.0500,  -3.999595,    0.699,
        24.1000,  -3.995280,    0.702,
        24.1500,  -3.991122,    0.705,
        24.2000,  -3.986978,    0.707,
        24.2500,  -3.982807,    0.710,
        24.3000,  -3.978671,    0.713,
        24.3500,  -3.974521,    0.716,
        24.4000,  -3.970385,    0.720,
        24.4500,  -3.966207,    0.722,
        24.5000,  -3.962089,    0.726,
        24.5500,  -3.957930,    0.729,
        24.6000,  -3.953794,    0.732,
        24.6500,  -3.949485,    0.735,
        24.7000,  -3.945260,    0.738,
        24.7500,  -3.941130,    0.741,
        24.8000,  -3.936990,    0.744,
        24.8500,  -3.932820,    0.747,
        24.9000,  -3.928647,    0.751,
