time,Force,Displacement
         0.0000,  -6.000093,    0.033,
         0.0500,  -5.999341,    0.033,
         0.1000,  -5.996087,    0.033,
         0.1500,  -5.992038,    0.033,
         0.2000,  -5.987907,    0.034,
         0.2500,  -5.983728,    0.034,
         0.3000,  -5.979600,    0.035,
         0.3500,  -5.975336,    0.035,
         0.4000,  -5.971218,    0.035,
         0.4500,  -5.967038,    0.035,
         0.5000,  -5.962870,    0.035,
         0.5500,  -5.958711,    0.036,
         0.6000,  -5.954518,    0.036,
         0.6500,  -5.950393,    0.037,
         0.7000,  -5.946176,    0.037,
         0.7500,  -5.941939,    0.037,
         0.8000,  -5.937852,    0.037,
         0.8500,  -5.933536,    0.037,
         0.9000,  -5.929322,    0.037,
         0.9500,  -5.925222,    0.038,
         1.0000,  -5.920957,    0.038,
         1.0500,  -5.916823,    0.038,
         1.1000,  -5.912717,    0.039,
         1.1500,  -5.908495,    0.039,
         1.2000,  -5.904296,    0.039,
         1.2500,  -5.900177,    0.039,
         1.3000,  -5.896046,    0.040,
         1.3500,  -5.891917,    0.040,
         1.4000,  -5.887687,    0.040,
         1.4500,  -5.883453,    0.040,
         1.5000,  -5.879329,    0.041,
         1.5500,  -5.875071,    0.041,
         1.6000,  -5.870947,    0.041,
         1.6500,  -5.866697,    0.041,
         1.7000,  -5.862447,    0.042,
         1.7500,  -5.858291,    0.042,
         1.8000,  -5.854254,    0.043,
         1.8500,  -5.850069,    0.043,
         1.9000,  -5.845904,    0.043,
         1.9500,  -5.841699,    0.043,
         2.0000,  -5.837552,    0.044,
         2.0500,  -5.833410,    0.044,
         2.1000,  -5.829249,    0.044,
         2.1500,  -5.825060,    0.045,
         2.2000,  -5.820915,    0.045,
         2.2500,  -5.816697,    0.045,
         2.3000,  -5.812459,    0.045,
         2.3500,  -5.808219,    0.046,
         2.4000,  -5.804105,    0.046,
         2.4500,  -5.799933,    0.046,
         2.5000,  -5.795765,    0.047,
         2.5500,  -5.791645,    0.047,
         2.6000,  -5.787463,    0.047,
         2.6500,  -5.783284,    0.047,
         2.7000,  -5.779154,    0.048,
         2.7500,  -5.774986,    0.049,
         2.8000,  -5.770807,    0.049,
         2.8500,  -5.766705,    0.049,
         2.9000,  -5.762535,    0.049,
         2.9500,  -5.758311,    0.049,
         3.0000,  -5.754144,    0.050,
         3.0500,  -5.749866,    0.050,
         3.1000,  -5.745605,    0.051,
         3.1500,  -5.741557,    0.051,
         3.2000,  -5.737457,    0.051,
         3.2500,  -5.733197,    0.051,
         3.3000,  -5.729041,    0.052,
         3.3500,  -5.724909,    0.052,
         3.4000,  -5.720758,    0.053,
         3.4500,  -5.716588,    0.053,
         3.5000,  -5.712518,    0.054,
         3.5500,  -5.708254,    0.054,
         3.6000,  -5.704114,    0.054,
         3.6500,  -5.699956,    0.055,
         3.7000,  -5.695578,    0.055,
         3.7500,  -5.691479,    0.056,
         3.8000,  -5.687326,    0.056,
         3.8500,  -5.683098,    0.056,
         3.9000,  -5.678994,    0.057,
         3.9500,  -5.674835,    0.057,
         4.0000,  -5.670705,    0.058,
         4.0500,  -5.666553,    0.058,
         4.1000,  -5.662277,    0.058,
         4.1500,  -5.658236,    0.058,
         4.2000,  -5.654050,    0.059,
         4.2500,  -5.649858,    0.060,
         4.3000,  -5.645799,    0.060,
         4.3500,  -5.641562,    0.060,
         4.4000,  -5.637215,    0.060,
         4.4500,  -5.633093,    0.061,
         4.5000,  -5.628930,    0.062,
         4.5500,  -5.624857,    0.062,
         4.6000,  -5.620603,    0.062,
         4.6500,  -5.616422,    0.063,
         4.7000,  -5.612281,    0.064,
         4.7500,  -5.608199,    0.064,
         4.8000,  -5.604015,    0.064,
         4.8500,  -5.599886,    0.065,
         4.9000,  -5.595659,    0.065,
         4.9500,  -5.591579,    0.066,
         5.0000,  -5.587353,    0.066,
         5.0500,  -5.583195,    0.066,
         5.1000,  -5.578810,    0.067,
         5.1500,  -5.574761,    0.068,
         5.2000,  -5.570538,    0.068,
         5.2500,  -5.566364,    0.068,
         5.3000,  -5.562235,    0.069,
         5.3500,  -5.558107,    0.069,
         5.4000,  -5.553862,    0.070,
         5.4500,  -5.549799,    0.070,
         5.5000,  -5.545717,    0.071,
         5.5500,  -5.541422,    0.072,
         5.6000,  -5.537279,    0.072,
         5.6500,  -5.533185,    0.073,
         5.7000,  -5.529001,    0.073,
         5.7500,  -5.524687,    0.074,
         5.8000,  -5.520419,    0.075,
         5.8500,  -5.516304,    0.075,
         5.9000,  -5.512273,    0.075,
         5.9500,  -5.508065,    0.076,
         6.0000,  -5.503724,    0.077,
         6.0500,  -5.499703,    0.077,
         6.1000,  -5.495658,    0.077,
         6.1500,  -5.491468,    0.078,
         6.2000,  -5.487198,    0.079,
         6.2500,  -5.483118,    0.079,
         6.3000,  -5.478979,    0.080,
         6.3500,  -5.474756,    0.081,
         6.4000,  -5.470454,    0.081,
         6.4500,  -5.466248,    0.082,
         6.5000,  -5.462170,    0.083,
         6.5500,  -5.458048,    0.083,
         6.6000,  -5.453826,    0.084,
         6.6500,  -5.449642,    0.085,
         6.7000,  -5.445496,    0.085,
         6.7500,  -5.441419,    0.086,
         6.8000,  -5.437125,    0.087,
         6.8500,  -5.433099,    0.087,
         6.9000,  -5.428887,    0.087,
         6.9500,  -5.424700,    0.088,
         7.0000,  -5.420590,    0.089,
         7.0500,  -5.416261,    0.089,
         7.1000,  -5.412141,    0.090,
         7.1500,  -5.407906,    0.091,
         7.2000,  -5.403707,    0.092,
         7.2500,  -5.399740,    0.093,
         7.3000,  -5.395521,    0.093,
         7.3500,  -5.391197,    0.094,
         7.4000,  -5.387108,    0.095,
         7.4500,  -5.383050,    0.096,
         7.5000,  -5.378789,    0.096,
         7.5500,  -5.374707,    0.098,
         7.6000,  -5.370466,    0.098,
         7.6500,  -5.366375,    0.099,
         7.7000,  -5.362059,    0.100,
         7.7500,  -5.357889,    0.101,
         7.8000,  -5.353705,    0.102,
         7.8500,  -5.349586,    0.102,
         7.9000,  -5.345318,    0.103,
         7.9500,  -5.341278,    0.104,
         8.0000,  -5.337147,    0.104,
         8.0500,  -5.332953,    0.105,
         8.1000,  -5.328876,    0.106,
         8.1500,  -5.324636,    0.107,
         8.2000,  -5.320446,    0.108,
         8.2500,  -5.316313,    0.109,
         8.3000,  -5.312193,    0.110,
         8.3500,  -5.307780,    0.111,
         8.4000,  -5.303665,    0.112,
         8.4500,  -5.299499,    0.112,
         8.5000,  -5.295419,    0.114,
         8.5500,  -5.291156,    0.114,
         8.6000,  -5.287086,    0.115,
         8.6500,  -5.282886,    0.117,
         8.7000,  -5.278792,    0.117,
         8.7500,  -5.274632,    0.119,
         8.8000,  -5.270412,    0.120,
         8.8500,  -5.266201,    0.121,
         8.9000,  -5.262160,    0.122,
         8.9500,  -5.257951,    0.123,
         9.0000,  -5.253582,    0.124,
         9.0500,  -5.249483,    0.125,
         9.1000,  -5.245281,    0.126,
         9.1500,  -5.241185,    0.127,
         9.2000,  -5.237073,    0.127,
         9.2500,  -5.232935,    0.129,
         9.3000,  -5.228634,    0.130,
         9.3500,  -5.224532,    0.131,
         9.4000,  -5.220479,    0.132,
         9.4500,  -5.216200,    0.133,
         9.5000,  -5.212071,    0.134,
         9.5500,  -5.207936,    0.136,
         9.6000,  -5.203553,    0.137,
         9.6500,  -5.199464,    0.138,
         9.7000,  -5.195327,    0.140,
         9.7500,  -5.191168,    0.140,
         9.8000,  -5.187036,    0.142,
         9.8500,  -5.182871,    0.143,
         9.9000,  -5.178666,    0.144,
         9.9500,  -5.174539,    0.146,
        10.0000,  -5.170371,    0.147,
        10.0500,  -5.166141,    0.148,
        10.1000,  -5.162096,    0.149,
        10.1500,  -5.158026,    0.150,
        10.2000,  -5.153594,    0.152,
        10.2500,  -5.149393,    0.153,
        10.3000,  -5.145262,    0.154,
        10.3500,  -5.141141,    0.156,
        10.4000,  -5.136987,    0.157,
        10.4500,  -5.132810,    0.159,
        10.5000,  -5.128616,    0.160,
        10.5500,  -5.124569,    0.161,
        10.6000,  -5.120371,    0.163,
        10.6500,  -5.116196,    0.164,
        10.7000,  -5.112022,    0.165,
        10.7500,  -5.107909,    0.167,
        10.8000,  -5.103623,    0.168,
        10.8500,  -5.099398,    0.170,
        10.9000,  -5.095328,    0.171,
        10.9500,  -5.091095,    0.173,
        11.0000,  -5.086937,    0.174,
        11.0500,  -5.082817,    0.175,
        11.1000,  -5.078639,    0.178,
        11.1500,  -5.074518,    0.179,
        11.2000,  -5.070322,    0.180,
        11.2500,  -5.066190,    0.182,
        11.3000,  -5.061967,    0.184,
        11.3500,  -5.057851,    0.185,
        11.4000,  -5.053710,    0.187,
        11.4500,  -5.049467,    0.188,
        11.5000,  -5.045224,    0.190,
        11.5500,  -5.041079,    0.192,
        11.6000,  -5.036954,    0.193,
        11.6500,  -5.032736,    0.195,
        11.7000,  -5.028607,    0.197,
        11.7500,  -5.024522,    0.199,
        11.8000,  -5.020379,    0.200,
        11.8500,  -5.016140,    0.202,
        11.9000,  -5.012075,    0.203,
        11.9500,  -5.007876,    0.205,
        12.0000,  -5.003623,    0.207,
        12.0500,  -4.999384,    0.209,
        12.1000,  -4.995234,    0.211,
        12.1500,  -4.991075,    0.213,
        12.2000,  -4.986924,    0.215,
        12.2500,  -4.982823,    0.217,
        12.3000,  -4.978555,    0.219,
        12.3500,  -4.974437,    0.220,
        12.4000,  -4.970340,    0.222,
        12.4500,  -4.966149,    0.224,
        12.5000,  -4.961974,    0.226,
        12.5500,  -4.957901,    0.228,
        12.6000,  -4.953627,    0.230,
        12.6500,  -4.949371,    0.232,
        12.7000,  -4.945202,    0.234,
        12.7500,  -4.940984,    0.236,
        12.8000,  -4.936916,    0.238,
        12.8500,  -4.932832,    0.240,
        12.9000,  -4.928583,    0.242,
        12.9500,  -4.924450,    0.244,
        13.0000,  -4.920245,    0.246,
        13.0500,  -4.916149,    0.248,
        13.1000,  -4.911912,    0.250,
        13.1500,  -4.907867,    0.252,
        13.2000,  -4.903544,    0.254,
        13.2500,  -4.899369,    0.256,
        13.3000,  -4.895211,    0.258,
        13.3500,  -4.891016,    0.260,
        13.4000,  -4.886907,    0.262,
        13.4500,  -4.882665,    0.264,
        13.5000,  -4.878655,    0.266,
        13.5500,  -4.874422,    0.268,
        13.6000,  -4.870272,    0.271,
        13.6500,  -4.866005,    0.273,
        13.7000,  -4.862007,    0.275,
        13.7500,  -4.857825,    0.276,
        13.8000,  -4.853441,    0.279,
        13.8500,  -4.849309,    0.281,
        13.9000,  -4.845154,    0.283,
        13.9500,  -4.841112,    0.285,
        14.0000,  -4.836792,    0.287,
        14.0500,  -4.832777,    0.289,
        14.1000,  -4.828509,    0.291,
        14.1500,  -4.824464,    0.293,
        14.2000,  -4.820119,    0.295,
        14.2500,  -4.816125,    0.297,
        14.3000,  -4.811974,    0.299,
        14.3500,  -4.807764,    0.301,
        14.4000,  -4.803433,    0.304,
        14.4500,  -4.799255,    0.306,
        14.5000,  -4.795222,    0.308,
        14.5500,  -4.790926,    0.310,
        14.6000,  -4.786801,    0.312,
        14.6500,  -4.782655,    0.314,
        14.7000,  -4.778597,    0.316,
        14.7500,  -4.774369,    0.319,
        14.8000,  -4.770183,    0.321,
        14.8500,  -4.766086,    0.323,
        14.9000,  -4.761863,    0.325,
        14.9500,  -4.757646,    0.328,
        15.0000,  -4.753549,    0.330,
        15.0500,  -4.749313,    0.332,
        15.1000,  -4.745016,    0.335,
        15.1500,  -4.740910,    0.337,
        15.2000,  -4.736803,    0.339,
        15.2500,  -4.732758,    0.341,
        15.3000,  -4.728450,    0.343,
        15.3500,  -4.724354,    0.346,
        15.4000,  -4.720209,    0.348,
        15.4500,  -4.716043,    0.350,
        15.5000,  -4.711866,    0.352,
        15.5500,  -4.707605,    0.354,
        15.6000,  -4.703373,    0.356,
        15.6500,  -4.699293,    0.358,
        15.7000,  -4.695088,    0.361,
        15.7500,  -4.690960,    0.363,
        15.8000,  -4.686886,    0.365,
        15.8500,  -4.682609,    0.368,
        15.9000,  -4.678433,    0.370,
        15.9500,  -4.674300,    0.372,
        16.0000,  -4.670246,    0.373,
        16.0500,  -4.666040,    0.376,
        16.1000,  -4.661841,    0.378,
        16.1500,  -4.657495,    0.381,
        16.2000,  -4.653402,    0.383,
        16.2500,  -4.649214,    0.385,
        16.3000,  -4.645160,    0.388,
        16.3500,  -4.640872,    0.390,
        16.4000,  -4.636812,    0.392,
        16.4500,  -4.632647,    0.394,
        16.5000,  -4.628470,    0.397,
        16.5500,  -4.624291,    0.399,
        16.6000,  -4.620219,    0.401,
        16.6500,  -4.616007,    0.404,
        16.7000,  -4.611694,    0.407,
        16.7500,  -4.607514,    0.409,
        16.8000,  -4.603421,    0.411,
        16.8500,  -4.599230,    0.413,
        16.9000,  -4.595008,    0.415,
        16.9500,  -4.590993,    0.418,
        17.0000,  -4.586779,    0.420,
        17.0500,  -4.582561,    0.422,
        17.1000,  -4.578505,    0.425,
        17.1500,  -4.574292,    0.427,
        17.2000,  -4.570203,    0.429,
        17.2500,  -4.566008,    0.432,
        17.3000,  -4.561707,    0.434,
        17.3500,  -4.557523,    0.436,
        17.4000,  -4.553308,    0.438,
        17.4500,  -4.549223,    0.440,
        17.5000,  -4.545058,    0.442,
        17.5500,  -4.540902,    0.444,
        17.6000,  -4.536813,    0.446,
        17.6500,  -4.532559,    0.449,
        17.7000,  -4.528483,    0.451,
        17.7500,  -4.524322,    0.453,
        17.8000,  -4.520205,    0.455,
        17.8500,  -4.515746,    0.457,
        17.9000,  -4.511711,    0.459,
        17.9500,  -4.507520,    0.462,
        18.0000,  -4.503412,    0.464,
        18.0500,  -4.499204,    0.467,
        18.1000,  -4.494947,    0.469,
        18.1500,  -4.490960,    0.472,
        18.2000,  -4.486824,    0.473,
        18.2500,  -4.482598,    0.476,
        18.3000,  -4.478496,    0.478,
        18.3500,  -4.474342,    0.480,
        18.4000,  -4.470124,    0.482,
        18.4500,  -4.465764,    0.485,
        18.5000,  -4.461687,    0.486,
        18.5500,  -4.457599,    0.489,
        18.6000,  -4.453385,    0.492,
        18.6500,  -4.449253,    0.494,
        18.7000,  -4.445058,    0.496,
        18.7500,  -4.440872,    0.498,
        18.8000,  -4.436830,    0.500,
        18.8500,  -4.432525,    0.502,
        18.9000,  -4.428478,    0.504,
        18.9500,  -4.424334,    0.506,
        19.0000,  -4.419953,    0.508,
        19.0500,  -4.415888,    0.510,
        19.1000,  -4.411702,    0.512,
        19.1500,  -4.407500,    0.514,
        19.2000,  -4.403324,    0.516,
        19.2500,  -4.399252,    0.518,
        19.3000,  -4.395008,    0.518,
        19.3500,  -4.390906,    0.516,
        19.4000,  -4.386763,    0.516,
        19.4500,  -4.382617,    0.517,
        19.5000,  -4.378498,    0.518,
        19.5500,  -4.374141,    0.520,
        19.6000,  -4.370005,    0.522,
        19.6500,  -4.365865,    0.525,
        19.7000,  -4.361698,    0.527,
        19.7500,  -4.357569,    0.530,
        19.8000,  -4.353374,    0.533,
        19.8500,  -4.349188,    0.535,
        19.9000,  -4.345042,    0.537,
        19.9500,  -4.340939,    0.540,
        20.0000,  -4.336810,    0.543,
        20.0500,  -4.332637,    0.545,
        20.1000,  -4.328375,    0.548,
        20.1500,  -4.324194,    0.551,
        20.2000,  -4.320027,    0.554,
        20.2500,  -4.315787,    0.557,
        20.3000,  -4.311689,    0.560,
        20.3500,  -4.307420,    0.562,
        20.4000,  -4.303402,    0.565,
        20.4500,  -4.299305,    0.568,
        20.5000,  -4.295064,    0.571,
        20.5500,  -4.290962,    0.573,
        20.6000,  -4.286753,    0.577,
        20.6500,  -4.282599,    0.580,
        20.7000,  -4.278318,    0.583,
        20.7500,  -4.274161,    0.585,
        20.8000,  -4.270036,    0.588,
        20.8500,  -4.265856,    0.591,
        20.9000,  -4.261668,    0.594,
        20.9500,  -4.257519,    0.597,
        21.0000,  -4.253405,    0.600,
        21.0500,  -4.249201,    0.603,
        21.1000,  -4.245066,    0.606,
        21.1500,  -4.241062,    0.608,
        21.2000,  -4.236675,    0.611,
        21.2500,  -4.232534,    0.615,
        21.3000,  -4.228293,    0.618,
        21.3500,  -4.224081,    0.621,
        21.4000,  -4.220059,    0.623,
        21.4500,  -4.215772,    0.627,
        21.5000,  -4.211778,    0.629,
        21.5500,  -4.207591,    0.632,
        21.6000,  -4.203352,    0.635,
        21.6500,  -4.199222,    0.638,
        21.7000,  -4.195049,    0.640,
        21.7500,  -4.190915,    0.643,
        21.8000,  -4.186653,    0.646,
        21.8500,  -4.182559,    0.648,
        21.9000,  -4.178241,    0.652,
        21.9500,  -4.174200,    0.654,
        22.0000,  -4.169950,    0.657,
        22.0500,  -4.165859,    0.661,
        22.1000,  -4.161755,    0.664,
        22.1500,  -4.157477,    0.667,
        22.2000,  -4.153419,    0.669,
        22.2500,  -4.149231,    0.673,
        22.3000,  -4.144999,    0.676,
        22.3500,  -4.140935,    0.679,
        22.4000,  -4.136540,    0.682,
        22.4500,  -4.132450,    0.685,
        22.5000,  -4.128271,    0.688,
        22.5500,  -4.124119,    0.692,
        22.6000,  -4.119968,    0.694,
        22.6500,  -4.115904,    0.697,
        22.7000,  -4.111654,    0.701,
        22.7500,  -4.107538,    0.704,
        22.8000,  -4.103422,    0.707,
        22.8500,  -4.099182,    0.710,
        22.9000,  -4.095108,    0.713,
        22.9500,  -4.090784,    0.716,
        23.0000,  -4.086625,    0.719,
        23.0500,  -4.082367,    0.722,
        23.1000,  -4.078305,    0.725,
        23.1500,  -4.074129,    0.728,
        23.2000,  -4.070053,    0.731,
        23.2500,  -4.065778,    0.734,
        23.3000,  -4.061757,    0.738,
        23.3500,  -4.057544,    0.741,
        23.4000,  -4.053311,    0.744,
        23.4500,  -4.049225,    0.747,
        23.5000,  -4.045045,    0.751,
        23.5500,  -4.040660,    0.754,
        23.6000,  -4.036629,    0.757,
        23.6500,  -4.032429,    0.760,
        23.7000,  -4.028313,    0.764,
        23.7500,  -4.024115,    0.767,
        23.8000,  -4.020033,    0.770,
        23.8500,  -4.015866,    0.773,
        23.9000,  -4.011723,    0.776,
        23.9500,  -4.007522,    0.780,
        24.0000,  -4.003352,    0.783,
        24.0500,  -3.999215,    0.786,
        24.1000,  -3.994867,    0.790,
        24.1500,  -3.990802,    0.793,
        24.2000,  -3.986605,    0.795,
        24.2500,  -3.982478,    0.799,
        24.3000,  -3.978144,    0.802,
        24.3500,  -3.974207,    0.805,
        24.4000,  -3.969857,    0.808,
        24.4500,  -3.965895,    0.811,
        24.5000,  -3.961687,    0.814,
        24.5500,  -3.957573,    0.818,
        24.6000,  -3.953326,    0.820,
        24.6500,  -3.949023,    0.824,
        24.7000,  -3.944993,    0.827,
        24.7500,  -3.940668,    0.831,
        24.8000,  -3.936626,    0.833,
        24.8500,  -3.932526,    0.837,
        24.9000,  -3.928224,    0.840,
