Time,Displacement,Force
         0.0000,  -5.999617,    0.026,
         0.0500,  -5.998989,    0.026,
         0.1000,  -5.995989,    0.026,
         0.1500,  -5.992023,    0.026,
         0.2000,  -5.987892,    0.026,
         0.2500,  -5.983740,    0.026,
         0.3000,  -5.979566,    0.026,
         0.3500,  -5.975391,    0.026,
         0.4000,  -5.971212,    0.026,
         0.4500,  -5.967027,    0.026,
         0.5000,  -5.962880,    0.026,
         0.5500,  -5.958694,    0.027,
         0.6000,  -5.954523,    0.027,
         0.6500,  -5.950371,    0.027,
         0.7000,  -5.946206,    0.027,
         0.7500,  -5.942030,    0.027,
         0.8000,  -5.937811,    0.028,
         0.8500,  -5.933509,    0.028,
         0.9000,  -5.929352,    0.028,
         0.9500,  -5.925168,    0.028,
         1.0000,  -5.920995,    0.028,
         1.0500,  -5.916823,    0.028,
         1.1000,  -5.912673,    0.028,
         1.1500,  -5.908500,    0.028,
         1.2000,  -5.904311,    0.029,
         1.2500,  -5.900183,    0.029,
         1.3000,  -5.896057,    0.029,
         1.3500,  -5.891847,    0.029,
         1.4000,  -5.887706,    0.029,
         1.4500,  -5.883536,    0.030,
         1.5000,  -5.879361,    0.030,
         1.5500,  -5.875073,    0.030,
         1.6000,  -5.870843,    0.030,
         1.6500,  -5.866691,    0.030,
         1.7000,  -5.862518,    0.030,
         1.7500,  -5.858387,    0.030,
         1.8000,  -5.854198,    0.030,
         1.8500,  -5.850051,    0.030,
         1.9000,  -5.845878,    0.031,
         1.9500,  -5.841721,    0.031,
         2.0000,  -5.837545,    0.031,
         2.0500,  -5.833425,    0.031,
         2.1000,  -5.829227,    0.032,
         2.1500,  -5.825098,    0.032,
         2.2000,  -5.820949,    0.032,
         2.2500,  -5.816715,    0.032,
         2.3000,  -5.812441,    0.032,
         2.3500,  -5.808246,    0.033,
         2.4000,  -5.804100,    0.033,
         2.4500,  -5.799934,    0.033,
         2.5000,  -5.795783,    0.033,
         2.5500,  -5.791627,    0.033,
         2.6000,  -5.787445,    0.033,
         2.6500,  -5.783316,    0.033,
         2.7000,  -5.779165,    0.033,
         2.7500,  -5.774995,    0.033,
         2.8000,  -5.770838,    0.034,
         2.8500,  -5.766693,    0.034,
         2.9000,  -5.762485,    0.034,
         2.9500,  -5.758370,    0.034,
         3.0000,  -5.754012,    0.034,
         3.0500,  -5.749854,    0.035,
         3.1000,  -5.745668,    0.035,
         3.1500,  -5.741544,    0.035,
         3.2000,  -5.737386,    0.035,
         3.2500,  -5.733200,    0.035,
         3.3000,  -5.729094,    0.035,
         3.3500,  -5.724894,    0.035,
         3.4000,  -5.720734,    0.036,
         3.4500,  -5.716600,    0.036,
         3.5000,  -5.712429,    0.036,
         3.5500,  -5.708292,    0.036,
         3.6000,  -5.704122,    0.037,
         3.6500,  -5.699981,    0.037,
         3.7000,  -5.695683,    0.037,
         3.7500,  -5.691440,    0.037,
         3.8000,  -5.687309,    0.037,
         3.8500,  -5.683131,    0.037,
         3.9000,  -5.679011,    0.037,
         3.9500,  -5.674840,    0.037,
         4.0000,  -5.670648,    0.038,
         4.0500,  -5.666528,    0.038,
         4.1000,  -5.662379,    0.038,
         4.1500,  -5.658197,    0.038,
         4.2000,  -5.654058,    0.038,
         4.2500,  -5.649902,    0.039,
         4.3000,  -5.645745,    0.039,
         4.3500,  -5.641551,    0.039,
         4.4000,  -5.637252,    0.039,
         4.4500,  -5.633069,    0.039,
         4.5000,  -5.628925,    0.039,
         4.5500,  -5.624756,    0.039,
         4.6000,  -5.620593,    0.039,
         4.6500,  -5.616439,    0.039,
         4.7000,  -5.612317,    0.040,
         4.7500,  -5.608153,    0.040,
         4.8000,  -5.603991,    0.040,
         4.8500,  -5.599821,    0.040,
         4.9000,  -5.595675,    0.040,
         4.9500,  -5.591533,    0.041,
         5.0000,  -5.587393,    0.041,
         5.0500,  -5.583108,    0.041,
         5.1000,  -5.578874,    0.041,
         5.1500,  -5.574690,    0.041,
         5.2000,  -5.570557,    0.041,
         5.2500,  -5.566420,    0.041,
         5.3000,  -5.562244,    0.041,
         5.3500,  -5.558098,    0.042,
         5.4000,  -5.553929,    0.042,
         5.4500,  -5.549758,    0.042,
         5.5000,  -5.545631,    0.043,
         5.5500,  -5.541460,    0.043,
         5.6000,  -5.537288,    0.043,
         5.6500,  -5.533140,    0.043,
         5.7000,  -5.528952,    0.043,
         5.7500,  -5.524657,    0.043,
         5.8000,  -5.520488,    0.044,
         5.8500,  -5.516346,    0.044,
         5.9000,  -5.512187,    0.044,
         5.9500,  -5.508026,    0.044,
         6.0000,  -5.503876,    0.045,
         6.0500,  -5.499715,    0.045,
         6.1000,  -5.495577,    0.045,
         6.1500,  -5.491413,    0.045,
         6.2000,  -5.487251,    0.045,
         6.2500,  -5.483097,    0.045,
         6.3000,  -5.478945,    0.045,
         6.3500,  -5.474761,    0.045,
         6.4000,  -5.470475,    0.046,
         6.4500,  -5.466289,    0.046,
         6.5000,  -5.462117,    0.046,
         6.5500,  -5.457954,    0.046,
         6.6000,  -5.453818,    0.047,
         6.6500,  -5.449669,    0.047,
         6.7000,  -5.445491,    0.047,
         6.7500,  -5.441334,    0.047,
         6.8000,  -5.437190,    0.047,
         6.8500,  -5.433045,    0.047,
         6.9000,  -5.428896,    0.047,
         6.9500,  -5.424727,    0.048,
         7.0000,  -5.420560,    0.048,
         7.0500,  -5.416259,    0.049,
         7.1000,  -5.412033,    0.049,
         7.1500,  -5.407906,    0.049,
         7.2000,  -5.403766,    0.049,
         7.2500,  -5.399598,    0.049,
         7.3000,  -5.395451,    0.049,
         7.3500,  -5.391284,    0.049,
         7.4000,  -5.387154,    0.050,
         7.4500,  -5.382996,    0.050,
         7.5000,  -5.378813,    0.050,
         7.5500,  -5.374684,    0.051,
         7.6000,  -5.370515,    0.051,
         7.6500,  -5.366355,    0.051,
         7.7000,  -5.362032,    0.051,
         7.7500,  -5.357859,    0.051,
         7.8000,  -5.353702,    0.051,
         7.8500,  -5.349558,    0.051,
         7.9000,  -5.345366,    0.052,
         7.9500,  -5.341241,    0.052,
         8.0000,  -5.337113,    0.052,
         8.0500,  -5.332948,    0.052,
         8.1000,  -5.328784,    0.053,
         8.1500,  -5.324608,    0.053,
         8.2000,  -5.320493,    0.053,
         8.2500,  -5.316329,    0.054,
         8.3000,  -5.312105,    0.054,
         8.3500,  -5.307835,    0.054,
         8.4000,  -5.303662,    0.054,
         8.4500,  -5.299481,    0.054,
         8.5000,  -5.295342,    0.054,
         8.5500,  -5.291172,    0.055,
         8.6000,  -5.287047,    0.055,
         8.6500,  -5.282897,    0.056,
         8.7000,  -5.278733,    0.056,
         8.7500,  -5.274590,    0.056,
         8.8000,  -5.270430,    0.056,
         8.8500,  -5.266253,    0.056,
         8.9000,  -5.262122,    0.056,
         8.9500,  -5.257883,    0.057,
         9.0000,  -5.253616,    0.057,
         9.0500,  -5.249471,    0.057,
         9.1000,  -5.245336,    0.058,
         9.1500,  -5.241161,    0.058,
         9.2000,  -5.237006,    0.058,
         9.2500,  -5.232857,    0.058,
         9.3000,  -5.228717,    0.058,
         9.3500,  -5.224533,    0.058,
         9.4000,  -5.220398,    0.059,
         9.4500,  -5.216258,    0.059,
         9.5000,  -5.212086,    0.059,
         9.5500,  -5.207892,    0.060,
         9.6000,  -5.203600,    0.060,
         9.6500,  -5.199440,    0.060,
         9.7000,  -5.195302,    0.060,
         9.7500,  -5.191144,    0.061,
         9.8000,  -5.186978,    0.061,
         9.8500,  -5.182838,    0.062,
         9.9000,  -5.178667,    0.062,
         9.9500,  -5.174535,    0.062,
        10.0000,  -5.170351,    0.062,
        10.0500,  -5.166214,    0.062,
        10.1000,  -5.162061,    0.062,
        10.1500,  -5.157888,    0.063,
        10.2000,  -5.153621,    0.063,
        10.2500,  -5.149402,    0.063,
        10.3000,  -5.145249,    0.063,
        10.3500,  -5.141120,    0.064,
        10.4000,  -5.136939,    0.064,
        10.4500,  -5.132776,    0.064,
        10.5000,  -5.128657,    0.064,
        10.5500,  -5.124507,    0.064,
        10.6000,  -5.120339,    0.064,
        10.6500,  -5.116189,    0.065,
        10.7000,  -5.112021,    0.065,
        10.7500,  -5.107879,    0.065,
        10.8000,  -5.103619,    0.066,
        10.8500,  -5.099402,    0.066,
        10.9000,  -5.095230,    0.066,
        10.9500,  -5.091087,    0.066,
        11.0000,  -5.086938,    0.067,
        11.0500,  -5.082780,    0.067,
        11.1000,  -5.078602,    0.068,
        11.1500,  -5.074471,    0.068,
        11.2000,  -5.070349,    0.068,
        11.2500,  -5.066177,    0.068,
        11.3000,  -5.062021,    0.068,
        11.3500,  -5.057882,    0.068,
        11.4000,  -5.053612,    0.069,
        11.4500,  -5.049371,    0.069,
        11.5000,  -5.045217,    0.069,
        11.5500,  -5.041064,    0.070,
        11.6000,  -5.036909,    0.070,
        11.6500,  -5.032747,    0.070,
        11.7000,  -5.028603,    0.070,
        11.7500,  -5.024455,    0.071,
        11.8000,  -5.020320,    0.071,
        11.8500,  -5.016127,    0.071,
        11.9000,  -5.011995,    0.072,
        11.9500,  -5.007855,    0.072,
        12.0000,  -5.003593,    0.072,
        12.0500,  -4.999347,    0.072,
        12.1000,  -4.995190,    0.073,
        12.1500,  -4.991068,    0.073,
        12.2000,  -4.986903,    0.074,
        12.2500,  -4.982733,    0.074,
        12.3000,  -4.978591,    0.075,
        12.3500,  -4.974472,    0.075,
        12.4000,  -4.970274,    0.075,
        12.4500,  -4.966128,    0.075,
        12.5000,  -4.962006,    0.075,
        12.5500,  -4.957824,    0.075,
        12.6000,  -4.953569,    0.076,
        12.6500,  -4.949303,    0.076,
        12.7000,  -4.945199,    0.077,
        12.7500,  -4.940998,    0.077,
        12.8000,  -4.936875,    0.077,
        12.8500,  -4.932735,    0.077,
        12.9000,  -4.928557,    0.078,
        12.9500,  -4.924405,    0.078,
        13.0000,  -4.920248,    0.079,
        13.0500,  -4.916136,    0.079,
        13.1000,  -4.911953,    0.079,
        13.1500,  -4.907789,    0.079,
        13.2000,  -4.903591,    0.080,
        13.2500,  -4.899310,    0.081,
        13.3000,  -4.895144,    0.081,
        13.3500,  -4.890986,    0.081,
        13.4000,  -4.886869,    0.081,
        13.4500,  -4.882690,    0.081,
        13.5000,  -4.878569,    0.082,
        13.5500,  -4.874429,    0.082,
        13.6000,  -4.870247,    0.083,
        13.6500,  -4.866093,    0.083,
        13.7000,  -4.861915,    0.083,
        13.7500,  -4.857817,    0.083,
        13.8000,  -4.853466,    0.084,
        13.8500,  -4.849304,    0.085,
        13.9000,  -4.845146,    0.085,
        13.9500,  -4.840959,    0.085,
        14.0000,  -4.836836,    0.085,
        14.0500,  -4.832693,    0.086,
        14.1000,  -4.828529,    0.086,
        14.1500,  -4.824371,    0.087,
        14.2000,  -4.820234,    0.087,
        14.2500,  -4.816078,    0.087,
        14.3000,  -4.811918,    0.087,
        14.3500,  -4.807732,    0.088,
        14.4000,  -4.803444,    0.088,
        14.4500,  -4.799249,    0.089,
        14.5000,  -4.795112,    0.089,
        14.5500,  -4.790940,    0.089,
        14.6000,  -4.786845,    0.089,
        14.6500,  -4.782645,    0.090,
        14.7000,  -4.778517,    0.091,
        14.7500,  -4.774347,    0.091,
        14.8000,  -4.770191,    0.091,
        14.8500,  -4.766043,    0.091,
        14.9000,  -4.761898,    0.092,
        14.9500,  -4.757671,    0.092,
        15.0000,  -4.753397,    0.093,
        15.0500,  -4.749251,    0.093,
        15.1000,  -4.745088,    0.093,
        15.1500,  -4.740962,    0.094,
        15.2000,  -4.736792,    0.094,
        15.2500,  -4.732620,    0.095,
        15.3000,  -4.728492,    0.096,
        15.3500,  -4.724372,    0.096,
        15.4000,  -4.720177,    0.096,
        15.4500,  -4.716016,    0.097,
        15.5000,  -4.711855,    0.097,
        15.5500,  -4.707592,    0.098,
        15.6000,  -4.703368,    0.098,
        15.6500,  -4.699239,    0.098,
        15.7000,  -4.695091,    0.098,
        15.7500,  -4.690919,    0.099,
        15.8000,  -4.686779,    0.099,
        15.8500,  -4.682607,    0.100,
        15.9000,  -4.678483,    0.100,
        15.9500,  -4.674274,    0.100,
        16.0000,  -4.670158,    0.101,
        16.0500,  -4.666012,    0.101,
        16.1000,  -4.661813,    0.102,
        16.1500,  -4.657517,    0.102,
        16.2000,  -4.653361,    0.103,
        16.2500,  -4.649216,    0.103,
        16.3000,  -4.645074,    0.104,
        16.3500,  -4.640900,    0.104,
        16.4000,  -4.636755,    0.104,
        16.4500,  -4.632615,    0.105,
        16.5000,  -4.628468,    0.106,
        16.5500,  -4.624313,    0.106,
        16.6000,  -4.620150,    0.106,
        16.6500,  -4.615992,    0.107,
        16.7000,  -4.611698,    0.108,
        16.7500,  -4.607503,    0.108,
        16.8000,  -4.603355,    0.108,
        16.8500,  -4.599206,    0.109,
        16.9000,  -4.595055,    0.109,
        16.9500,  -4.590894,    0.110,
        17.0000,  -4.586750,    0.110,
        17.0500,  -4.582613,    0.110,
        17.1000,  -4.578458,    0.111,
        17.1500,  -4.574292,    0.111,
        17.2000,  -4.570169,    0.112,
        17.2500,  -4.565951,    0.112,
        17.3000,  -4.561637,    0.112,
        17.3500,  -4.557517,    0.113,
        17.4000,  -4.553361,    0.114,
        17.4500,  -4.549228,    0.114,
        17.5000,  -4.545041,    0.114,
        17.5500,  -4.540886,    0.115,
        17.6000,  -4.536768,    0.116,
        17.6500,  -4.532593,    0.117,
        17.7000,  -4.528438,    0.117,
        17.7500,  -4.524327,    0.117,
        17.8000,  -4.520136,    0.118,
        17.8500,  -4.515845,    0.119,
        17.9000,  -4.511647,    0.119,
        17.9500,  -4.507505,    0.120,
        18.0000,  -4.503378,    0.121,
        18.0500,  -4.499214,    0.121,
        18.1000,  -4.495050,    0.121,
        18.1500,  -4.490903,    0.122,
        18.2000,  -4.486743,    0.122,
        18.2500,  -4.482599,    0.123,
        18.3000,  -4.478457,    0.123,
        18.3500,  -4.474285,    0.124,
        18.4000,  -4.470064,    0.124,
        18.4500,  -4.465816,    0.125,
        18.5000,  -4.461645,    0.125,
        18.5500,  -4.457498,    0.125,
        18.6000,  -4.453379,    0.126,
        18.6500,  -4.449184,    0.127,
        18.7000,  -4.445061,    0.127,
        18.7500,  -4.440895,    0.128,
        18.8000,  -4.436772,    0.129,
        18.8500,  -4.432608,    0.129,
        18.9000,  -4.428466,    0.130,
        18.9500,  -4.424268,    0.131,
        19.0000,  -4.419954,    0.131,
        19.0500,  -4.415811,    0.132,
        19.1000,  -4.411652,    0.133,
        19.1500,  -4.407510,    0.133,
        19.2000,  -4.403344,    0.133,
        19.2500,  -4.399215,    0.134,
        19.3000,  -4.395061,    0.135,
        19.3500,  -4.390922,    0.135,
        19.4000,  -4.386744,    0.136,
        19.4500,  -4.382634,    0.136,
        19.5000,  -4.378451,    0.137,
        19.5500,  -4.374120,    0.138,
        19.6000,  -4.369979,    0.138,
        19.6500,  -4.365823,    0.138,
        19.7000,  -4.361661,    0.140,
        19.7500,  -4.357516,    0.140,
        19.8000,  -4.353361,    0.141,
        19.8500,  -4.349201,    0.142,
        19.9000,  -4.345044,    0.142,
        19.9500,  -4.340889,    0.143,
        20.0000,  -4.336795,    0.144,
        20.0500,  -4.332608,    0.144,
        20.1000,  -4.328358,    0.145,
        20.1500,  -4.324105,    0.146,
        20.2000,  -4.319979,    0.146,
        20.2500,  -4.315783,    0.146,
        20.3000,  -4.311682,    0.147,
        20.3500,  -4.307529,    0.148,
        20.4000,  -4.303360,    0.148,
        20.4500,  -4.299246,    0.149,
        20.5000,  -4.295073,    0.150,
        20.5500,  -4.290922,    0.150,
        20.6000,  -4.286786,    0.151,
        20.6500,  -4.282579,    0.152,
        20.7000,  -4.278254,    0.152,
        20.7500,  -4.274141,    0.153,
        20.8000,  -4.269969,    0.154,
        20.8500,  -4.265843,    0.155,
        20.9000,  -4.261672,    0.156,
        20.9500,  -4.257529,    0.157,
        21.0000,  -4.253347,    0.157,
        21.0500,  -4.249203,    0.158,
        21.1000,  -4.245080,    0.159,
        21.1500,  -4.240903,    0.159,
        21.2000,  -4.236761,    0.160,
        21.2500,  -4.232502,    0.160,
        21.3000,  -4.228254,    0.161,
        21.3500,  -4.224122,    0.162,
        21.4000,  -4.219954,    0.163,
        21.4500,  -4.215839,    0.163,
        21.5000,  -4.211674,    0.164,
        21.5500,  -4.207504,    0.165,
        21.6000,  -4.203364,    0.166,
        21.6500,  -4.199232,    0.167,
        21.7000,  -4.195063,    0.168,
        21.7500,  -4.190897,    0.169,
        21.8000,  -4.186654,    0.169,
        21.8500,  -4.182390,    0.169,
        21.9000,  -4.178289,    0.171,
        21.9500,  -4.174116,    0.171,
        22.0000,  -4.169955,    0.172,
        22.0500,  -4.165794,    0.173,
        22.1000,  -4.161704,    0.173,
        22.1500,  -4.157522,    0.174,
        22.2000,  -4.153363,    0.175,
        22.2500,  -4.149204,    0.176,
        22.3000,  -4.145083,    0.177,
        22.3500,  -4.140885,    0.178,
        22.4000,  -4.136559,    0.179,
        22.4500,  -4.132424,    0.180,
        22.5000,  -4.128276,    0.180,
        22.5500,  -4.124103,    0.182,
        22.6000,  -4.119986,    0.182,
        22.6500,  -4.115796,    0.183,
        22.7000,  -4.111678,    0.184,
        22.7500,  -4.107530,    0.184,
        22.8000,  -4.103325,    0.185,
        22.8500,  -4.099224,    0.186,
        22.9000,  -4.095076,    0.187,
        22.9500,  -4.090747,    0.188,
        23.0000,  -4.086580,    0.189,
        23.0500,  -4.082439,    0.190,
        23.1000,  -4.078259,    0.191,
        23.1500,  -4.074107,    0.192,
        23.2000,  -4.069970,    0.193,
        23.2500,  -4.065832,    0.194,
        23.3000,  -4.061641,    0.194,
        23.3500,  -4.057535,    0.195,
        23.4000,  -4.053365,    0.196,
        23.4500,  -4.049202,    0.196,
        23.5000,  -4.044962,    0.198,
        23.5500,  -4.040704,    0.199,
        23.6000,  -4.036569,    0.199,
        23.6500,  -4.032380,    0.201,
        23.7000,  -4.028281,    0.202,
        23.7500,  -4.024099,    0.203,
        23.8000,  -4.019996,    0.204,
        23.8500,  -4.015809,    0.205,
        23.9000,  -4.011668,    0.205,
        23.9500,  -4.007500,    0.207,
        24.0000,  -4.003379,    0.207,
        24.0500,  -3.999148,    0.209,
        24.1000,  -3.994874,    0.209,
        24.1500,  -3.990705,    0.210,
        24.2000,  -3.986554,    0.211,
        24.2500,  -3.982401,    0.212,
        24.3000,  -3.978281,    0.213,
        24.3500,  -3.974106,    0.215,
        24.4000,  -3.969959,    0.215,
        24.4500,  -3.965816,    0.216,
        24.5000,  -3.961674,    0.217,
        24.5500,  -3.957511,    0.218,
        24.6000,  -3.953367,    0.220,
        24.6500,  -3.949033,    0.220,
        24.7000,  -3.944854,    0.221,
        24.7500,  -3.940691,    0.222,
        24.8000,  -3.936568,    0.223,
        24.8500,  -3.932388,    0.224,
        24.9000,  -3.928313,    0.226,
