Time,Displacement,Force
         0.0000,  -5.999351,    0.002,
         0.0500,  -5.998716,    0.002,
         0.1000,  -5.995747,    0.003,
         0.1500,  -5.991870,    0.005,
         0.2000,  -5.987684,    0.006,
         0.2500,  -5.983584,    0.007,
         0.3000,  -5.979376,    0.008,
         0.3500,  -5.975225,    0.009,
         0.4000,  -5.970946,    0.012,
         0.4500,  -5.966914,    0.012,
         0.5000,  -5.962751,    0.014,
         0.5500,  -5.958543,    0.015,
         0.6000,  -5.954352,    0.016,
         0.6500,  -5.950133,    0.018,
         0.7000,  -5.946009,    0.020,
         0.7500,  -5.941862,    0.021,
         0.8000,  -5.937546,    0.022,
         0.8500,  -5.933343,    0.024,
         0.9000,  -5.929196,    0.025,
         0.9500,  -5.925022,    0.026,
         1.0000,  -5.920793,    0.028,
         1.0500,  -5.916631,    0.030,
         1.1000,  -5.912484,    0.031,
         1.1500,  -5.908342,    0.033,
         1.2000,  -5.904155,    0.035,
         1.2500,  -5.899989,    0.037,
         1.3000,  -5.895886,    0.038,
         1.3500,  -5.891646,    0.040,
         1.4000,  -5.887484,    0.041,
         1.4500,  -5.883366,    0.043,
         1.5000,  -5.879160,    0.045,
         1.5500,  -5.874955,    0.047,
         1.6000,  -5.870693,    0.048,
         1.6500,  -5.866531,    0.050,
         1.7000,  -5.862356,    0.052,
         1.7500,  -5.858243,    0.054,
         1.8000,  -5.854011,    0.056,
         1.8500,  -5.849854,    0.058,
         1.9000,  -5.845754,    0.060,
         1.9500,  -5.841560,    0.062,
         2.0000,  -5.837369,    0.064,
         2.0500,  -5.833251,    0.066,
         2.1000,  -5.829044,    0.069,
         2.1500,  -5.824920,    0.071,
         2.2000,  -5.820787,    0.073,
         2.2500,  -5.816551,    0.076,
         2.3000,  -5.812322,    0.078,
         2.3500,  -5.808095,    0.081,
         2.4000,  -5.803931,    0.083,
         2.4500,  -5.799751,    0.085,
         2.5000,  -5.795594,    0.088,
         2.5500,  -5.791512,    0.091,
         2.6000,  -5.787277,    0.093,
         2.6500,  -5.783210,    0.096,
         2.7000,  -5.778984,    0.098,
         2.7500,  -5.774852,    0.101,
         2.8000,  -5.770708,    0.104,
         2.8500,  -5.766521,    0.106,
         2.9000,  -5.762355,    0.110,
         2.9500,  -5.758210,    0.112,
         3.0000,  -5.753920,    0.116,
         3.0500,  -5.749641,    0.119,
         3.1000,  -5.745508,    0.122,
         3.1500,  -5.741494,    0.125,
         3.2000,  -5.737181,    0.129,
         3.2500,  -5.733086,    0.131,
         3.3000,  -5.728956,    0.135,
         3.3500,  -5.724776,    0.138,
         3.4000,  -5.720563,    0.142,
         3.4500,  -5.716481,    0.145,
         3.5000,  -5.712277,    0.148,
         3.5500,  -5.708148,    0.152,
         3.6000,  -5.703983,    0.155,
         3.6500,  -5.699801,    0.159,
         3.7000,  -5.695546,    0.163,
         3.7500,  -5.691262,    0.167,
         3.8000,  -5.687226,    0.170,
         3.8500,  -5.683022,    0.174,
         3.9000,  -5.678866,    0.178,
         3.9500,  -5.674735,    0.182,
         4.0000,  -5.670420,    0.186,
         4.0500,  -5.666396,    0.190,
         4.1000,  -5.662243,    0.194,
         4.1500,  -5.658064,    0.199,
         4.2000,  -5.653879,    0.203,
         4.2500,  -5.649762,    0.208,
         4.3000,  -5.645567,    0.212,
         4.3500,  -5.641448,    0.217,
         4.4000,  -5.637222,    0.221,
         4.4500,  -5.632867,    0.226,
         4.5000,  -5.628696,    0.230,
         4.5500,  -5.624762,    0.235,
         4.6000,  -5.620477,    0.241,
         4.6500,  -5.616326,    0.245,
         4.7000,  -5.612186,    0.250,
         4.7500,  -5.607988,    0.255,
         4.8000,  -5.603917,    0.260,
         4.8500,  -5.599656,    0.266,
         4.9000,  -5.595608,    0.270,
         4.9500,  -5.591419,    0.276,
         5.0000,  -5.587277,    0.282,
         5.0500,  -5.582908,    0.287,
         5.1000,  -5.578721,    0.292,
         5.1500,  -5.574646,    0.298,
         5.2000,  -5.570455,    0.304,
         5.2500,  -5.566420,    0.309,
         5.3000,  -5.562081,    0.315,
         5.3500,  -5.557956,    0.321,
         5.4000,  -5.553806,    0.327,
         5.4500,  -5.549720,    0.333,
         5.5000,  -5.545528,    0.339,
         5.5500,  -5.541322,    0.346,
         5.6000,  -5.537194,    0.352,
         5.6500,  -5.533027,    0.358,
         5.7000,  -5.528877,    0.364,
         5.7500,  -5.524632,    0.371,
         5.8000,  -5.520430,    0.378,
         5.8500,  -5.516196,    0.385,
         5.9000,  -5.512091,    0.391,
         5.9500,  -5.507944,    0.398,
         6.0000,  -5.503829,    0.405,
         6.0500,  -5.499583,    0.412,
         6.1000,  -5.495506,    0.418,
         6.1500,  -5.491318,    0.426,
         6.2000,  -5.487233,    0.434,
         6.2500,  -5.482981,    0.441,
         6.3000,  -5.478793,    0.448,
         6.3500,  -5.474690,    0.455,
         6.4000,  -5.470320,    0.463,
         6.4500,  -5.466222,    0.472,
         6.5000,  -5.462076,    0.479,
         6.5500,  -5.457827,    0.486,
         6.6000,  -5.453720,    0.495,
         6.6500,  -5.449550,    0.503,
         6.7000,  -5.445421,    0.511,
         6.7500,  -5.441213,    0.519,
         6.8000,  -5.437146,    0.528,
         6.8500,  -5.432937,    0.537,
         6.9000,  -5.428881,    0.544,
         6.9500,  -5.424772,    0.553,
         7.0000,  -5.420461,    0.562,
         7.0500,  -5.416180,    0.571,
         7.1000,  -5.411989,    0.580,
         7.1500,  -5.407886,    0.588,
         7.2000,  -5.403636,    0.598,
         7.2500,  -5.399553,    0.606,
         7.3000,  -5.395426,    0.616,
         7.3500,  -5.391191,    0.625,
         7.4000,  -5.387113,    0.635,
         7.4500,  -5.382963,    0.644,
         7.5000,  -5.378769,    0.654,
         7.5500,  -5.374601,    0.664,
         7.6000,  -5.370483,    0.673,
         7.6500,  -5.366229,    0.684,
         7.7000,  -5.361949,    0.694,
         7.7500,  -5.357815,    0.704,
         7.8000,  -5.353698,    0.714,
         7.8500,  -5.349519,    0.724,
         7.9000,  -5.345372,    0.735,
         7.9500,  -5.341208,    0.745,
         8.0000,  -5.337024,    0.756,
         8.0500,  -5.332902,    0.767,
         8.1000,  -5.328734,    0.777,
         8.1500,  -5.324553,    0.789,
         8.2000,  -5.320486,    0.799,
         8.2500,  -5.316256,    0.811,
         8.3000,  -5.312103,    0.822,
         8.3500,  -5.307737,    0.834,
         8.4000,  -5.303722,    0.845,
         8.4500,  -5.299478,    0.857,
         8.5000,  -5.295355,    0.868,
         8.5500,  -5.291087,    0.881,
         8.6000,  -5.286951,    0.892,
         8.6500,  -5.282991,    0.904,
         8.7000,  -5.278690,    0.917,
         8.7500,  -5.274580,    0.929,
         8.8000,  -5.270461,    0.941,
         8.8500,  -5.266223,    0.954,
         8.9000,  -5.262110,    0.966,
         8.9500,  -5.257826,    0.979,
         9.0000,  -5.253622,    0.993,
         9.0500,  -5.249419,    1.005,
         9.1000,  -5.245354,    1.018,
         9.1500,  -5.241156,    1.031,
         9.2000,  -5.237002,    1.044,
         9.2500,  -5.232875,    1.058,
         9.3000,  -5.228661,    1.071,
         9.3500,  -5.224563,    1.085,
         9.4000,  -5.220353,    1.098,
         9.4500,  -5.216298,    1.111,
         9.5000,  -5.212130,    1.125,
         9.5500,  -5.207909,    1.140,
         9.6000,  -5.203607,    1.154,
         9.6500,  -5.199440,    1.169,
         9.7000,  -5.195218,    1.183,
         9.7500,  -5.191129,    1.198,
         9.8000,  -5.187012,    1.212,
         9.8500,  -5.182860,    1.226,
         9.9000,  -5.178591,    1.242,
         9.9500,  -5.174531,    1.257,
        10.0000,  -5.170415,    1.271,
        10.0500,  -5.166291,    1.286,
        10.1000,  -5.162093,    1.302,
        10.1500,  -5.157906,    1.317,
        10.2000,  -5.153701,    1.333,
        10.2500,  -5.149387,    1.350,
        10.3000,  -5.145217,    1.365,
        10.3500,  -5.141117,    1.381,
        10.4000,  -5.137031,    1.396,
        10.4500,  -5.132847,    1.413,
        10.5000,  -5.128779,    1.428,
        10.5500,  -5.124508,    1.445,
        10.6000,  -5.120366,    1.462,
        10.6500,  -5.116172,    1.478,
        10.7000,  -5.112032,    1.495,
        10.7500,  -5.107932,    1.512,
        10.8000,  -5.103763,    1.528,
        10.8500,  -5.099502,    1.545,
        10.9000,  -5.095276,    1.563,
        10.9500,  -5.091069,    1.579,
        11.0000,  -5.087063,    1.596,
        11.0500,  -5.082792,    1.615,
        11.1000,  -5.078725,    1.631,
        11.1500,  -5.074557,    1.648,
        11.2000,  -5.070366,    1.667,
        11.2500,  -5.066215,    1.684,
        11.3000,  -5.062085,    1.702,
        11.3500,  -5.057847,    1.721,
        11.4000,  -5.053773,    1.738,
        11.4500,  -5.049411,    1.758,
        11.5000,  -5.045310,    1.776,
        11.5500,  -5.041120,    1.795,
        11.6000,  -5.036944,    1.813,
        11.6500,  -5.032874,    1.831,
        11.7000,  -5.028661,    1.850,
        11.7500,  -5.024516,    1.869,
        11.8000,  -5.020409,    1.888,
        11.8500,  -5.016214,    1.907,
        11.9000,  -5.012063,    1.925,
        11.9500,  -5.007948,    1.944,
        12.0000,  -5.003719,    1.964,
        12.0500,  -4.999484,    1.984,
        12.1000,  -4.995288,    2.004,
        12.1500,  -4.991101,    2.024,
        12.2000,  -4.987041,    2.043,
        12.2500,  -4.982858,    2.062,
        12.3000,  -4.978618,    2.083,
        12.3500,  -4.974494,    2.102,
        12.4000,  -4.970375,    2.122,
        12.4500,  -4.966224,    2.141,
        12.5000,  -4.962097,    2.161,
        12.5500,  -4.957862,    2.181,
        12.6000,  -4.953586,    2.202,
        12.6500,  -4.949483,    2.222,
        12.7000,  -4.945257,    2.241,
        12.7500,  -4.941085,    2.262,
        12.8000,  -4.936962,    2.281,
        12.8500,  -4.932831,    2.301,
        12.9000,  -4.928644,    2.320,
        12.9500,  -4.924484,    2.339,
        13.0000,  -4.920324,    2.359,
        13.0500,  -4.916198,    2.379,
        13.1000,  -4.912070,    2.399,
        13.1500,  -4.907874,    2.419,
        13.2000,  -4.903625,    2.439,
        13.2500,  -4.899484,    2.459,
        13.3000,  -4.895223,    2.478,
        13.3500,  -4.890986,    2.495,
        13.4000,  -4.886809,    2.507,
        13.4500,  -4.882798,    2.524,
        13.5000,  -4.878594,    2.543,
        13.5500,  -4.874551,    2.562,
        13.6000,  -4.870288,    2.581,
        13.6500,  -4.866057,    2.601,
        13.7000,  -4.861989,    2.619,
        13.7500,  -4.857828,    2.637,
        13.8000,  -4.853598,    2.656,
        13.8500,  -4.849349,    2.675,
        13.9000,  -4.845217,    2.693,
        13.9500,  -4.841013,    2.711,
        14.0000,  -4.836839,    2.726,
        14.0500,  -4.832596,    2.741,
        14.1000,  -4.828497,    2.754,
        14.1500,  -4.824396,    2.769,
        14.2000,  -4.820269,    2.785,
        14.2500,  -4.816124,    2.802,
        14.3000,  -4.811911,    2.818,
        14.3500,  -4.807785,    2.835,
        14.4000,  -4.803568,    2.851,
        14.4500,  -4.799242,    2.864,
        14.5000,  -4.795046,    2.878,
        14.5500,  -4.791010,    2.892,
        14.6000,  -4.786860,    2.907,
        14.6500,  -4.782668,    2.921,
        14.7000,  -4.778497,    2.936,
        14.7500,  -4.774330,    2.951,
        14.8000,  -4.770174,    2.966,
        14.8500,  -4.766050,    2.981,
        14.9000,  -4.761944,    2.991,
        14.9500,  -4.757487,    3.002,
        15.0000,  -4.753277,    3.006,
        15.0500,  -4.749012,    3.003,
        15.1000,  -4.744353,    2.978,
        15.1500,  -4.739549,    2.912,
        15.2000,  -4.736043,    2.852,
        15.2500,  -4.732398,    2.852,
        15.3000,  -4.728301,    2.854,
        15.3500,  -4.724148,    2.858,
        15.4000,  -4.720041,    2.862,
        15.4500,  -4.715841,    2.868,
        15.5000,  -4.711795,    2.873,
        15.5500,  -4.707461,    2.880,
        15.6000,  -4.703183,    2.886,
        15.6500,  -4.699100,    2.888,
        15.7000,  -4.694779,    2.886,
        15.7500,  -4.690677,    2.883,
        15.8000,  -4.686502,    2.881,
        15.8500,  -4.682418,    2.877,
        15.9000,  -4.678144,    2.876,
        15.9500,  -4.673829,    2.858,
        16.0000,  -4.669869,    2.846,
        16.0500,  -4.665549,    2.832,
        16.1000,  -4.661529,    2.821,
        16.1500,  -4.657129,    2.810,
        16.2000,  -4.652918,    2.797,
        16.2500,  -4.648844,    2.785,
        16.3000,  -4.644732,    2.774,
        16.3500,  -4.640557,    2.762,
        16.4000,  -4.636328,    2.748,
        16.4500,  -4.632222,    2.732,
        16.5000,  -4.628118,    2.721,
        16.5500,  -4.623810,    2.706,
        16.6000,  -4.619613,    2.686,
        16.6500,  -4.615443,    2.661,
        16.7000,  -4.611218,    2.641,
        16.7500,  -4.606910,    2.615,
        16.8000,  -4.602678,    2.579,
        16.8500,  -4.598072,    2.528,
        16.9000,  -4.593479,    2.431,
        16.9500,  -4.589517,    2.344,
        17.0000,  -4.585665,    2.278,
        17.0500,  -4.581687,    2.231,
        17.1000,  -4.577493,    2.182,
        17.1500,  -4.573036,    2.108,
        17.2000,  -4.569107,    2.043,
        17.2500,  -4.564944,    1.993,
        17.3000,  -4.560408,    1.925,
        17.3500,  -4.556006,    1.842,
        17.4000,  -4.551707,    1.739,
        17.4500,  -4.547590,    1.637,
        17.5000,  -4.543263,    1.530,
        17.5500,  -4.539580,    1.443,
        17.6000,  -4.535675,    1.379,
        17.6500,  -4.531694,    1.332,
        17.7000,  -4.527797,    1.297,
        17.7500,  -4.523756,    1.270,
        17.8000,  -4.519561,    1.248,
        17.8500,  -4.515362,    1.227,
        17.9000,  -4.510953,    1.192,
        17.9500,  -4.506920,    1.161,
        18.0000,  -4.502815,    1.137,
        18.0500,  -4.498722,    1.118,
        18.1000,  -4.494572,    1.102,
        18.1500,  -4.490633,    1.087,
        18.2000,  -4.486357,    1.076,
        18.2500,  -4.482191,    1.061,
        18.3000,  -4.478041,    1.043,
        18.3500,  -4.473865,    1.031,
        18.4000,  -4.469750,    1.020,
        18.4500,  -4.465446,    1.011,
        18.5000,  -4.461306,    1.002,
        18.5500,  -4.457216,    0.993,
        18.6000,  -4.453132,    0.984,
        18.6500,  -4.448854,    0.978,
        18.7000,  -4.444785,    0.970,
        18.7500,  -4.440554,    0.964,
        18.8000,  -4.436535,    0.958,
        18.8500,  -4.432232,    0.952,
        18.9000,  -4.428241,    0.944,
        18.9500,  -4.423957,    0.938,
        19.0000,  -4.419662,    0.932,
        19.0500,  -4.415487,    0.925,
        19.1000,  -4.411379,    0.917,
        19.1500,  -4.407045,    0.904,
        19.2000,  -4.403052,    0.894,
        19.2500,  -4.398902,    0.887,
        19.3000,  -4.394732,    0.879,
        19.3500,  -4.390553,    0.871,
        19.4000,  -4.386406,    0.860,
        19.4500,  -4.382282,    0.852,
        19.5000,  -4.378173,    0.844,
        19.5500,  -4.373797,    0.836,
        19.6000,  -4.369566,    0.829,
        19.6500,  -4.365497,    0.820,
        19.7000,  -4.361321,    0.810,
        19.7500,  -4.357226,    0.801,
        19.8000,  -4.352952,    0.791,
        19.8500,  -4.348849,    0.783,
        19.9000,  -4.344828,    0.774,
        19.9500,  -4.340606,    0.764,
        20.0000,  -4.336425,    0.756,
        20.0500,  -4.332341,    0.748,
        20.1000,  -4.327995,    0.740,
        20.1500,  -4.323780,    0.733,
        20.2000,  -4.319671,    0.727,
        20.2500,  -4.315507,    0.722,
        20.3000,  -4.311353,    0.717,
        20.3500,  -4.307291,    0.711,
        20.4000,  -4.303031,    0.705,
        20.4500,  -4.298929,    0.702,
        20.5000,  -4.294777,    0.698,
        20.5500,  -4.290665,    0.694,
        20.6000,  -4.286505,    0.690,
        20.6500,  -4.282362,    0.686,
        20.7000,  -4.277999,    0.684,
        20.7500,  -4.273851,    0.680,
        20.8000,  -4.269784,    0.678,
        20.8500,  -4.265576,    0.675,
        20.9000,  -4.261433,    0.670,
        20.9500,  -4.257182,    0.665,
        21.0000,  -4.253098,    0.660,
        21.0500,  -4.248981,    0.655,
        21.1000,  -4.244785,    0.650,
        21.1500,  -4.240677,    0.646,
        21.2000,  -4.236466,    0.644,
        21.2500,  -4.232273,    0.642,
        21.3000,  -4.228152,    0.640,
        21.3500,  -4.223742,    0.638,
        21.4000,  -4.219712,    0.635,
        21.4500,  -4.215496,    0.633,
        21.5000,  -4.211504,    0.631,
        21.5500,  -4.207262,    0.629,
        21.6000,  -4.203108,    0.627,
        21.6500,  -4.199021,    0.626,
        21.7000,  -4.194884,    0.624,
        21.7500,  -4.190557,    0.622,
        21.8000,  -4.186489,    0.620,
        21.8500,  -4.182144,    0.620,
        21.9000,  -4.178083,    0.618,
        21.9500,  -4.173949,    0.617,
        22.0000,  -4.169686,    0.615,
        22.0500,  -4.165683,    0.614,
        22.1000,  -4.161349,    0.614,
        22.1500,  -4.157278,    0.612,
        22.2000,  -4.153172,    0.611,
        22.2500,  -4.148968,    0.609,
        22.3000,  -4.144852,    0.608,
        22.3500,  -4.140594,    0.607,
        22.4000,  -4.136376,    0.606,
        22.4500,  -4.132081,    0.606,
        22.5000,  -4.128078,    0.605,
        22.5500,  -4.123809,    0.604,
        22.6000,  -4.119829,    0.604,
        22.6500,  -4.115511,    0.603,
        22.7000,  -4.111477,    0.602,
        22.7500,  -4.107146,    0.598,
        22.8000,  -4.103174,    0.597,
        22.8500,  -4.099082,    0.596,
        22.9000,  -4.094762,    0.594,
        22.9500,  -4.090389,    0.593,
        23.0000,  -4.086359,    0.589,
        23.0500,  -4.082192,    0.587,
        23.1000,  -4.077945,    0.585,
        23.1500,  -4.073881,    0.581,
        23.2000,  -4.069702,    0.579,
        23.2500,  -4.065568,    0.576,
        23.3000,  -4.061416,    0.572,
        23.3500,  -4.057257,    0.570,
        23.4000,  -4.053102,    0.567,
        23.4500,  -4.048979,    0.565,
        23.5000,  -4.044782,    0.562,
        23.5500,  -4.040386,    0.560,
        23.6000,  -4.036272,    0.556,
        23.6500,  -4.032187,    0.553,
        23.7000,  -4.027996,    0.548,
        23.7500,  -4.023779,    0.545,
        23.8000,  -4.019793,    0.542,
        23.8500,  -4.015530,    0.541,
        23.9000,  -4.011352,    0.539,
        23.9500,  -4.007247,    0.536,
        24.0000,  -4.003064,    0.533,
        24.0500,  -3.998871,    0.530,
        24.1000,  -3.994602,    0.527,
        24.1500,  -3.990505,    0.524,
        24.2000,  -3.986330,    0.522,
        24.2500,  -3.982144,    0.519,
        24.3000,  -3.978016,    0.517,
        24.3500,  -3.973846,    0.515,
        24.4000,  -3.969736,    0.512,
        24.4500,  -3.965495,    0.508,
        24.5000,  -3.961423,    0.505,
        24.5500,  -3.957240,    0.501,
        24.6000,  -3.952856,    0.483,
        24.6500,  -3.948662,    0.474,
        24.7000,  -3.944560,    0.468,
        24.7500,  -3.940376,    0.463,
        24.8000,  -3.936277,    0.458,
        24.8500,  -3.932147,    0.453,
        24.9000,  -3.928026,    0.449,
